--- Mammal: human
Fs: 633.3790161980266
Integration_Level: electrocardiogram
Channels:
- type: electrography
  name: ECG
  unit: mV
  enable: yes
---
198.7645
197.3776
196.1714
195.2154
194.7042
194.5684
194.9331
195.9235
197.3728
199.1145
200.9333
202.7041
204.3230
205.6718
206.6601
207.2603
207.2987
206.7892
205.7040
204.1472
202.1258
199.5634
197.1613
195.0029
193.0673
191.5629
190.3576
189.4585
189.0183
188.9814
189.4729
190.1870
191.1656
192.7419
194.3118
195.7710
197.3001
198.6977
200.2624
202.0012
203.8723
206.0633
208.4422
211.2728
214.5691
218.1921
222.1835
226.6544
231.4173
236.5625
241.8190
247.2217
252.6524
257.9583
263.0631
267.9043
272.4193
276.3789
279.9290
283.1043
285.9117
288.1706
290.0477
291.4180
292.4690
293.3118
293.9949
294.6364
295.4377
296.6627
298.2071
299.8558
301.6225
303.6948
305.8921
308.3046
310.7240
313.1225
315.4238
317.4749
319.0191
319.8201
320.0515
319.8522
319.2431
318.2449
313.9549
306.3522
295.5201
281.3545
264.0567
243.5504
219.9813
193.6342
164.4812
132.5711
97.9383
60.4928
26.1998
-4.8228
-32.6444
-57.2024
-78.6289
-96.8126
-111.8024
-123.7370
-132.7485
-138.8923
-142.1477
-142.5078
-143.0558
-143.8752
-144.8965
-146.1821
-147.6420
-149.2135
-150.9453
-152.7749
-154.5565
-156.4151
-158.3576
-160.1827
-161.7029
-162.9460
-163.7661
-164.0314
-163.7974
-163.1544
-162.0399
-160.5372
-158.8270
-156.6731
-154.1797
-151.6732
-149.3550
-147.2251
-145.3600
-143.7318
-142.3128
-141.0961
-140.1997
-139.6654
-139.3958
-139.5161
-139.8248
-140.3011
-140.5840
-140.5345
-140.3749
-140.2094
-140.0518
-139.9092
-139.5246
-138.6549
-137.3418
-135.6618
-133.6774
-131.1246
-128.3021
-125.5017
-122.4384
-119.1958
-115.7044
-111.9781
-108.1766
-104.5291
-101.1120
-97.8004
-94.7400
-92.1392
-90.0258
-88.1568
-86.6780
-85.5200
-84.8217
-84.4372
-84.2972
-84.4016
-84.4519
-84.5383
-84.5983
-84.6251
-84.6255
-84.5302
-84.3253
-83.9691
-83.4061
-82.9557
-82.7637
-82.6497
-82.8915
-83.5237
-84.5047
-85.5290
-86.5133
-87.5269
-88.6186
-89.8855
-91.1611
-92.0703
-92.5228
-92.7965
-92.8358
-92.5158
-91.8502
-91.2559
-90.5522
-89.9475
-89.4141
-88.8061
-88.3944
-88.4636
-88.9098
-89.5175
-90.2312
-90.9816
-91.7477
-92.3839
-93.0219
-93.6550
-94.0955
-94.5172
-94.7951
-94.6582
-94.3429
-93.8698
-93.1973
-92.4783
-91.7544
-90.9840
-90.3823
-90.1021
-90.4629
-91.2217
-92.4340
-94.3360
-96.8165
-99.9728
-103.8812
-108.5349
-113.8367
-119.7795
-126.0371
-131.8803
-137.0937
-141.9275
-146.3747
-150.3520
-153.7829
-156.6537
-159.0476
-160.8883
-162.2453
-163.1879
-163.8065
-164.5526
-165.3774
-166.0727
-166.7079
-167.1997
-167.6731
-168.0448
-168.1065
-167.8929
-167.4665
-166.8134
-166.0171
-165.1607
-164.3625
-163.7404
-163.0515
-162.3790
-161.6396
-160.8612
-159.9327
-158.8748
-157.6737
-156.2460
-154.6961
-152.9266
-150.8958
-148.6108
-146.1341
-143.5420
-140.7860
-137.7758
-134.9975
-132.3678
-129.8103
-127.3597
-124.7244
-121.8489
-118.8026
-115.4049
-111.8781
-108.1250
-104.1734
-100.1690
-95.9176
-91.6482
-87.4789
-83.4236
-79.6768
-76.3427
-73.4628
-71.3360
-69.8023
-68.8272
-68.5634
-68.9485
-69.8573
-70.9220
-72.0452
-73.2617
-74.5368
-75.9053
-77.2074
-78.2486
-79.1193
-79.9584
-80.6200
-81.1251
-81.4388
-81.8945
-82.4297
-83.0792
-83.9680
-85.1099
-86.5050
-88.2922
-90.2909
-92.4733
-94.7423
-97.2090
-100.0262
-103.0618
-106.3854
-109.8859
-113.2577
-116.2995
-119.1640
-121.7123
-124.1667
-126.3259
-128.4466
-130.3069
-131.8024
-132.9123
-133.6298
-134.0312
-134.3457
-134.4552
-134.3320
-133.9761
-133.2000
-132.1565
-130.7414
-129.1353
-127.3659
-125.4403
-123.4626
-121.2453
-118.7537
-116.3627
-113.7809
-111.0775
-108.1693
-105.0423
-101.4814
-97.2157
-92.0993
-86.0976
-78.8564
-70.3826
-60.5096
-48.8485
-35.5521
-20.3495
-3.1575
16.1420
37.4310
60.5080
85.1718
111.3527
132.2730
147.8078
157.8180
162.0122
160.3762
152.5978
138.3295
117.3979
89.7403
55.3360
14.1710
-33.7823
-75.5658
-111.5335
-141.8036
-166.5913
-186.1813
-200.7403
-210.3864
-215.2169
-215.4747
-211.4307
-203.0640
-190.3817
-179.9393
-171.2924
-164.4061
-158.9751
-154.7145
-151.2911
-148.4756
-146.1223
-143.8908
-141.2535
-138.2589
-134.8236
-130.8992
-126.6036
-121.9855
-117.0170
-111.9413
-106.9389
-101.9612
-97.0777
-92.3716
-88.2041
-84.4503
-81.0962
-78.1487
-75.7121
-73.5085
-71.5658
-69.6340
-67.6436
-65.6362
-63.4800
-61.1958
-58.6794
-56.0072
-53.3390
-50.4941
-47.3129
-43.9898
-40.6984
-37.5638
-34.6414
-31.8133
-29.1906
-26.7593
-24.4986
-22.2975
-20.0031
-17.7057
-15.5790
-13.6438
-11.7612
-10.0353
-8.2857
-6.8733
-5.6733
-4.7551
-4.0978
-3.7640
-3.8092
-4.2264
-4.8560
-5.6076
-6.4605
-7.0813
-7.6713
-7.8487
-7.7316
-7.2365
-6.3773
-5.2583
-3.5739
-1.3727
1.3523
4.4413
7.9777
11.7461
15.6841
19.5834
23.4856
27.4462
31.4167
35.5637
39.2900
42.6790
45.6472
48.4586
51.0160
53.3749
56.0492
59.0250
62.4065
66.0131
69.8795
73.9017
78.3712
83.2672
88.6800
94.4846
100.5421
106.8177
112.7144
118.3709
123.5858
128.3800
132.7883
136.8384
140.5858
143.8847
146.5754
148.5815
150.0697
151.1650
152.1174
152.7185
153.1420
153.5198
153.7268
153.7077
153.3026
152.5740
151.6261
150.5353
149.2043
147.4874
145.3221
142.8958
140.0280
136.6492
132.9331
128.8449
124.5375
120.0455
115.3897
110.5981
105.6635
100.4056
94.9144
89.0235
82.9549
76.6116
69.8128
62.7115
55.3423
47.6914
39.7588
31.3152
22.5343
13.7148
4.8774
-3.6167
-12.0314
-20.0334
-27.5186
-34.4729
-40.9936
-47.0044
-52.5261
-57.1559
-61.1020
-64.3438
-67.0409
-69.4502
-71.3495
-73.0791
-74.5278
-75.8833
-77.1037
-78.1197
-78.8618
-79.5799
-80.1770
-80.8404
-81.3618
-81.6580
-81.8329
-81.8798
-81.7986
-81.5267
-81.0573
-80.6195
-80.3731
-80.2762
-80.3221
-80.3579
-80.5017
-80.8645
-81.3561
-81.0460
-80.2326
-78.7842
-76.5687
-73.6833
-69.9267
-65.2156
-59.5359
-52.9225
-45.3892
-36.8527
-27.3477
-18.3950
-9.7099
-1.2368
6.6284
14.3857
21.8338
28.7505
35.1218
40.8783
45.9507
50.3527
53.8830
57.3610
60.5577
63.2438
65.7318
67.6121
68.9748
70.0076
70.5993
70.8957
70.9386
70.5959
70.1803
69.4902
68.8036
68.1551
67.5447
67.1044
66.7509
66.4147
66.3042
66.1138
66.0033
66.0142
65.9940
66.0188
65.8875
65.7666
64.3575
61.5145
57.4874
52.1862
45.5343
37.7609
28.6509
18.3638
6.9415
-5.6231
-19.2328
-34.0680
-47.7329
-59.9497
-70.9685
-80.5531
-88.7521
-95.7183
-101.2294
-105.4591
-108.4698
-110.2754
-110.9176
-110.4103
-109.8437
-109.5303
-109.3798
-109.6215
-110.1927
-110.8573
-111.8099
-113.0989
-114.6897
-116.6170
-118.9433
-121.5435
-124.5773
-127.7601
-131.1335
-134.4822
-137.9243
-141.4874
-145.1926
-148.7479
-152.1605
-155.3469
-158.2169
-160.7774
-162.8617
-164.5531
-165.7754
-166.7227
-167.2703
-167.5916
-167.5687
-167.4930
-167.3717
-167.1839
-166.9433
-166.7751
-166.7278
-166.9890
-167.5029
-168.1169
-168.8588
-169.5964
-170.2258
-170.5733
-170.6665
-170.4431
-169.9447
-168.9907
-167.5880
-165.5075
-162.8741
-159.8129
-156.3169
-152.3582
-148.2911
-144.2614
-140.1510
-136.1543
-132.1880
-128.2521
-124.4855
-120.9228
-117.6891
-114.6871
-112.0210
-109.8644
-107.8769
-105.8503
-103.9651
-102.1866
-100.6049
-99.3660
-98.2476
-97.4164
-96.5112
-95.6292
-94.6316
-93.4350
-92.1574
-90.9308
-89.6024
-87.7069
-85.1957
-82.0895
-78.5968
-74.5508
-70.2570
-65.7364
-61.0583
-56.2436
-51.2783
-46.3429
-41.4654
-37.3956
-34.2030
-31.7278
-29.8728
-28.7144
-28.1484
-28.1609
-28.7588
-29.9421
-31.7248
-33.9123
-36.5115
-39.0920
-41.4869
-43.7589
-46.0051
-48.1005
-50.1284
-51.7625
-53.0860
-53.9322
-54.2665
-54.1929
-53.6491
-52.8223
-51.8586
-51.0772
-50.3533
-49.8672
-49.5011
-49.6367
-50.1630
-51.2050
-52.7695
-54.6761
-56.9663
-59.5639
-62.4547
-65.0695
-67.4012
-69.2208
-70.6391
-71.4341
-71.5502
-70.9943
-69.7246
-67.7760
-65.0790
-61.5016
-56.7868
-51.0249
-44.0076
-35.8737
-26.3941
-15.6868
-3.7032
9.7513
24.6279
41.0517
58.9394
78.1729
98.6203
120.1011
142.4139
165.5032
189.2369
213.5250
238.0200
262.0763
285.2911
306.9630
326.3905
337.6363
339.9920
333.0757
316.4013
289.9132
253.4795
207.1628
151.4561
87.2551
15.3309
-63.3096
-147.2013
-224.3162
-293.3626
-353.5768
-404.0767
-444.3831
-474.1697
-493.3045
-501.9124
-500.4657
-489.4296
-469.3389
-441.2143
-411.3337
-380.7942
-350.1028
-319.9469
-291.1113
-264.0057
-238.7828
-215.8384
-195.3809
-177.3617
-161.8293
-148.6032
-137.6000
-128.3128
-120.6998
-114.5250
-109.2189
-104.6426
-100.7614
-97.3946
-94.2577
-91.4407
-88.9645
-86.7320
-84.4792
-82.5046
-80.6348
-78.9529
-77.6881
-76.6877
-76.0350
-75.5354
-75.3002
-75.1696
-74.9143
-74.6316
-74.4743
-73.5604
-72.1607
-70.0877
-67.4594
-64.4842
-61.0441
-57.4305
-53.5672
-49.5236
-45.3205
-40.9300
-36.4564
-32.9692
-30.3154
-28.5228
-27.1887
-26.1395
-25.2917
-23.5830
-20.9715
-17.2975
-12.6098
-6.8734
0.2032
8.6964
18.8703
30.6483
43.8083
58.1837
73.6285
88.5596
102.8866
116.4359
129.0547
140.7154
151.0777
160.6414
168.9554
176.1793
182.1950
187.1693
191.2133
195.0075
198.5520
201.8052
204.9266
207.9442
210.9760
213.7998
216.8045
219.6360
222.5442
225.4042
228.1465
230.6740
233.0630
235.5011
237.8216
240.0383
242.2556
244.4317
246.3930
248.2854
250.0117
251.5093
252.7784
253.9369
254.9502
255.6655
256.2286
256.5701
256.6415
256.4982
255.4875
253.7137
250.8989
247.2792
242.8547
237.6601
231.6676
224.8287
217.0878
208.5144
198.9556
188.5227
178.4378
168.6524
159.5970
151.1258
143.1902
135.6652
128.5648
122.0625
116.2139
111.0259
106.6168
102.7572
98.9055
95.0340
90.9621
86.7524
82.4117
78.0513
73.6503
69.1114
64.4278
59.6412
54.8834
50.3907
46.1421
42.3114
38.8846
35.8826
33.3193
31.0488
29.2448
27.9004
27.0226
26.3751
25.7914
25.1465
24.4820
23.6035
22.5597
21.2533
19.8650
18.6099
17.2312
15.8399
14.3320
12.9435
11.9315
11.2611
10.7519
10.5358
10.4948
10.6357
10.9102
11.2972
11.8940
12.5965
13.5089
14.6103
15.4633
16.2206
17.0697
17.9343
19.0088
20.3002
21.5447
22.6727
23.6842
24.6210
25.4970
26.2150
27.0804
28.0378
28.9831
29.8467
30.4968
31.0583
31.7882
32.6519
33.7534
35.0233
36.4340
38.0478
39.7537
41.5517
43.5252
45.6741
47.9152
50.1164
52.1737
54.1009
55.8356
57.5652
59.2482
60.9192
62.6476
64.3503
66.0548
67.8725
69.9352
72.2916
74.8374
77.6075
80.5185
83.3343
86.0965
88.7497
91.2939
93.7012
95.8745
97.8137
99.4981
100.9832
102.3871
103.5779
104.6527
105.6116
106.5032
107.2511
107.6540
107.7951
107.7302
107.3826
106.8498
105.9720
104.8256
103.6189
102.1922
100.7261
99.1512
97.5090
96.1053
94.9677
93.9714
93.2064
92.4855
91.8571
91.2589
90.6491
90.1111
89.5824
89.0421
88.6154
88.1632
87.6093
87.2036
86.8836
86.6910
86.6814
86.8270
87.0445
87.3269
87.7020
88.0310
88.2583
88.3978
88.5328
88.4967
88.2686
87.9736
87.5700
87.0578
86.4857
85.9924
85.3350
84.7983
84.2849
83.7462
83.0644
82.2948
81.3472
80.0898
78.5780
76.7840
74.5969
71.9540
69.0846
65.8983
62.5619
59.1657
55.8624
52.5548
49.4165
46.5726
44.0022
41.8858
40.2722
39.2515
38.8168
38.8918
39.3236
40.0221
40.8900
41.9828
43.2172
44.4961
45.7638
46.8537
47.8214
48.4654
48.8136
48.9007
48.8309
48.6527
48.3523
47.9228
47.4822
46.9819
46.6163
46.3717
46.2965
46.5019
46.8907
47.5324
48.2880
49.1229
50.1481
51.3775
52.6168
54.0117
55.2776
56.3519
57.3596
58.1618
58.8351
59.4348
60.0652
60.6846
61.3347
61.9183
62.7062
63.5595
64.6519
66.2194
67.8662
69.7035
71.7104
73.7202
75.7608
77.8807
79.8994
81.9835
83.9734
85.9455
87.8510
89.5860
91.4003
93.3287
95.3295
97.4166
99.5693
101.8360
104.6266
107.8508
111.4530
115.4470
119.8677
124.5692
129.5306
134.6340
139.8515
145.1484
150.5803
156.0291
160.6823
164.5330
167.6229
169.8894
171.3326
172.0497
172.0267
171.2569
169.8511
167.8165
165.0281
161.5968
158.0714
154.5838
151.0923
147.6941
144.2852
140.9974
137.8029
134.8476
132.1593
129.7935
127.7225
125.9462
124.4022
122.9654
121.7054
120.5526
119.6806
118.9646
118.3836
117.9793
117.6336
117.4508
117.5558
117.9486
118.5668
119.3339
120.2291
121.2454
122.2024
123.0305
123.7437
124.1753
124.3253
124.0478
123.2596
121.9189
120.1230
118.0802
115.8947
113.6081
111.4358
109.5999
108.1491
107.1944
106.8679
107.3778
108.7381
111.0529
114.3360
118.5598
123.5576
129.3987
136.0416
143.2918
151.3367
160.2250
170.0401
180.7541
192.6449
205.8165
220.3246
236.1830
253.6974
272.7495
293.3673
315.7451
339.5080
364.5449
390.4112
416.7113
442.7435
467.7164
490.8661
511.4216
528.3344
541.0003
548.5026
545.6400
532.5443
509.1740
475.9249
433.3733
382.2970
323.8974
259.4176
190.2603
118.0089
44.0870
-29.9637
-93.9281
-147.5352
-190.6392
-223.4623
-246.3310
-259.6688
-264.3022
-261.1061
-250.9832
-234.8782
-213.8395
-188.7353
-164.9474
-142.9273
-122.9250
-104.8362
-88.9458
-75.1635
-63.3850
-53.2146
-44.6315
-37.5383
-31.7615
-27.1831
-23.6572
-21.0240
-19.0893
-17.9848
-17.3009
-17.1418
-17.3546
-18.0852
-19.1670
-20.5096
-22.0507
-23.8109
-25.6931
-27.5306
-29.4485
-31.2870
-33.1086
-34.9758
-36.8677
-38.7915
-40.7052
-42.5674
-44.3225
-45.9565
-47.4139
-48.8683
-50.1670
-51.2405
-52.2972
-53.0383
-53.5057
-53.6577
-53.6053
-53.4875
-53.4153
-53.3055
-53.1927
-53.1187
-53.1042
-53.2604
-53.3373
-53.2586
-53.1213
-52.9881
-52.8034
-52.4838
-51.8696
-51.2248
-50.6812
-50.0654
-49.5091
-49.1652
-49.0685
-49.5661
-50.5192
-51.7958
-53.3889
-55.2640
-57.4904
-59.7347
-61.8026
-63.8121
-65.5271
-66.7323
-67.4972
-67.6551
-67.2755
-66.5528
-65.5286
-64.3419
-63.1316
-62.0088
-61.1610
-60.5951
-60.5750
-61.1285
-62.2418
-63.9842
-66.3906
-69.3428
-72.8408
-76.8153
-81.0995
-85.7838
-90.6875
-95.6927
-100.6535
-105.7088
-110.8516
-116.0890
-121.2542
-126.4097
-131.3612
-136.1017
-140.6450
-145.0120
-149.3139
-153.5089
-157.6248
-161.6062
-165.3626
-168.7831
-172.0829
-175.2134
-178.4245
-181.6470
-184.9432
-188.0909
-191.1666
-194.4063
-197.7962
-201.2044
-204.8044
-208.7004
-212.7466
-216.8875
-221.0327
-225.1962
-229.3154
-233.4530
-237.4560
-241.0190
-244.2114
-247.0263
-249.6998
-252.0791
-254.2266
-256.1842
-257.9101
-259.5085
-260.9308
-262.2951
-263.6429
-265.1758
-266.8452
-268.8176
-270.4195
-271.8453
-273.0673
-274.0576
-274.8442
-275.3505
-275.7086
-275.8907
-275.9314
-275.8240
-275.5405
-274.9282
-274.3760
-273.6131
-272.7645
-271.8718
-270.8796
-269.8225
-268.6867
-267.2985
-265.6441
-263.7373
-261.5227
-259.1946
-256.7115
-254.3579
-251.9188
-249.3523
-246.8807
-244.3583
-241.7364
-239.3066
-237.0412
-234.8708
-232.9412
-231.0927
-229.3738
-227.7500
-226.3392
-225.1761
-224.1151
-223.2601
-222.6391
-222.0991
-221.6195
-221.3044
-221.0288
-220.7648
-220.4223
-219.8277
-218.9809
-217.9305
-216.5169
-214.8095
-212.8084
-210.5342
-208.0288
-205.1671
-201.9838
-198.6109
-195.0693
-191.5048
-187.9451
-184.2445
-180.6460
-177.1079
-173.6094
-170.1228
-166.6827
-163.3795
-160.2479
-157.2115
-154.3953
-151.7576
-149.1666
-146.8027
-144.5619
-142.4093
-140.2895
-138.3205
-136.4676
-134.2516
-131.7143
-128.8069
-125.5157
-121.8683
-118.0455
-113.9221
-109.5329
-104.8501
-100.0683
-95.0276
-89.7419
-85.0725
-80.9359
-77.4502
-74.4696
-71.9594
-69.7529
-67.9195
-66.5080
-65.5807
-64.8322
-64.2138
-63.7464
-62.9508
-61.7853
-60.2014
-58.1366
-55.6325
-52.9044
-49.8204
-46.2903
-42.3139
-38.2108
-34.1684
-30.1452
-26.1689
-22.4756
-19.0653
-16.0144
-13.3785
-10.8729
-8.6920
-6.7802
-5.1515
-3.5143
-1.7712
0.1680
2.1783
4.5027
7.1689
10.0243
13.2702
16.6705
20.3154
24.1008
28.0336
31.5513
34.6400
37.2234
39.3777
41.0683
42.2535
43.0860
43.3298
43.0821
42.3012
41.0565
39.3827
37.9604
36.7618
35.6342
34.6469
33.6472
32.6767
31.6660
30.7609
29.9615
29.2815
28.6446
27.9952
27.2362
26.3674
25.6250
24.9118
24.4916
24.3507
24.5582
25.1075
26.0539
27.4461
29.3328
31.7971
34.5614
37.6951
40.9829
44.4247
47.7012
50.7360
53.3900
55.6426
57.3618
58.4780
59.0817
59.0199
58.5219
57.5043
56.1129
54.3825
52.3616
50.0989
47.6569
45.1119
42.6236
40.2129
37.7826
35.5271
33.2380
30.9432
28.6564
26.3847
24.4892
23.0392
22.1251
21.5871
21.2447
21.2922
21.5979
22.0921
22.9277
24.0838
25.5258
27.3715
29.2601
31.1497
32.9917
34.8487
36.8108
38.6768
40.4952
42.2383
43.8365
45.2205
46.3902
47.1928
47.8923
48.4330
48.8150
49.0174
49.1235
49.1264
49.1789
49.3782
49.5923
50.0712
50.8427
51.8791
52.9858
54.1489
55.3269
56.5960
57.8313
59.1369
60.3531
61.3966
62.4131
63.2222
63.7266
63.9194
66.4671
71.8004
80.1415
91.7125
106.7913
125.3501
147.6875
173.7410
203.5105
236.8710
273.5032
313.2195
350.3185
383.6614
412.2688
435.0993
451.1804
459.7971
460.0533
451.5534
433.8041
406.8333
370.8841
326.1856
275.9947
221.2767
163.0247
102.2942
40.1963
-18.2898
-71.8378
-119.5379
-160.4179
-194.1583
-220.3218
-238.5263
-248.7302
-250.8848
-244.8166
-230.5256
-208.2548
-185.9070
-164.3573
-143.9389
-125.1450
-108.0518
-92.7568
-79.6347
-69.0122
-61.0557
-56.1543
-54.5231
-56.2040
-57.6829
-58.5432
-59.0419
-59.0402
-58.6907
-58.3129
-57.8652
-57.0003
-55.7044
-53.9845
-51.7918
-49.3140
-46.4815
-43.4819
-40.2389
-36.9745
-33.6750
-30.2570
-26.6025
-23.1351
-19.9659
-17.0879
-14.7651
-12.8100
-11.1531
-9.8222
-8.6437
-7.4856
-5.5772
-2.7934
0.5810
4.9210
10.2475
16.6298
24.1861
32.7706
42.3345
52.8362
64.0743
75.8406
86.7529
96.7003
105.7799
113.7070
120.3914
125.7426
129.8373
132.7099
134.2772
134.6573
134.0099
132.6335
130.9380
128.9023
126.5822
124.0818
121.3732
118.4635
115.3109
111.9571
108.4993
104.9098
101.0982
96.9605
92.8437
88.8105
84.9440
81.1611
77.6283
74.3318
71.2785
68.3364
65.4431
62.5846
59.1220
55.0277
50.0237
44.1518
37.2453
29.3805
20.6686
11.1304
0.8006
-10.1541
-21.5601
-33.5355
-44.7330
-55.2777
-64.8224
-73.5545
-81.3283
-88.1020
-94.0632
-99.1910
-103.5896
-107.2382
-110.3382
-112.6673
-114.8020
-116.5478
-118.2033
-119.5394
-120.6255
-121.4408
-122.0269
-122.3978
-122.4215
-122.2578
-121.8510
-121.3887
-121.0098
-120.6866
-120.2384
-119.8874
-119.6130
-119.4219
-119.2726
-119.0470
-118.8979
-118.7072
-118.4679
-118.0830
-117.6634
-117.4107
-117.4427
-117.5582
-117.8822
-118.5327
-119.4194
-120.7924
-122.3808
-124.1916
-126.0581
-127.9178
-129.5069
-130.7489
-131.5257
-132.0597
-131.9550
-131.1699
-129.8295
-127.6351
-124.7811
-121.3579
-117.6433
-113.8177
-110.0757
-106.3062
-102.7035
-98.9622
-95.6308
-92.7372
-90.1493
-88.1451
-86.7660
-85.9081
-85.2866
-84.7486
-84.3012
-84.0485
-83.6989
-83.5509
-83.3754
-82.9850
-82.4420
-81.5661
-80.3154
-78.7872
-77.1483
-75.4749
-73.5797
-71.4625
-69.3873
-67.1041
-64.4394
-61.5805
-58.6177
-55.6762
-52.7628
-49.7595
-46.8537
-43.9831
-41.3350
-38.8748
-36.5122
-34.4347
-32.9062
-31.8989
-31.2392
-30.8646
-30.7335
-30.9153
-31.1253
-31.4190
-31.6923
-31.8966
-32.1083
-32.2231
-32.1648
-31.8778
-31.5078
-30.9994
-30.4359
-29.8381
-29.1575
-28.4842
-27.7836
-27.2710
-26.7936
-26.4486
-26.1458
-25.8990
-25.6179
-25.3652
-24.9670
-24.2291
-23.4431
-22.3659
-20.9768
-18.9284
-16.3250
-13.2568
-9.6614
-5.7817
-1.6804
2.5454
6.7498
10.4814
13.8931
16.8875
19.2009
20.6039
21.1383
21.1236
20.3514
19.2730
17.7982
16.1770
14.3955
12.8842
11.7196
10.7488
10.2358
10.2430
10.5621
10.9500
11.4832
11.8907
12.4018
12.8775
13.3596
13.7021
13.7176
13.5381
12.9204
11.8437
10.7594
9.6814
8.6861
7.8569
7.1658
6.4949
5.8858
5.3594
5.1310
5.1101
5.5400
6.3304
7.1825
8.2561
9.4611
10.6930
11.9035
13.1618
14.4334
15.6834
16.8354
17.9520
19.0887
20.2178
21.3738
22.4459
23.4755
24.4905
25.4005
26.3446
27.3434
28.4040
29.4014
30.3841
31.1091
31.7291
32.2789
32.7933
33.1680
33.5696
34.0747
34.5789
35.0060
35.1962
35.3022
35.3241
35.2897
35.2336
34.9892
34.5356
33.9979
33.1608
31.9131
30.3174
28.3458
26.3318
24.1363
21.6484
19.0207
16.1144
13.2072
10.2506
7.3695
4.5569
2.0213
-0.3693
-2.3233
-4.0976
-5.6297
-6.7947
-7.6550
-8.0926
-8.2810
-8.2065
-8.0981
-7.7684
-7.4396
-6.9520
-6.5347
-5.9517
-5.0849
-3.9759
-2.6318
-1.0594
0.7829
2.8674
5.2495
7.8737
10.8442
14.0013
17.3866
20.7570
24.0362
27.1548
30.1682
33.0071
35.5880
38.1194
40.6637
43.0959
45.5271
47.9782
50.3588
52.7732
55.2491
57.8837
60.5382
63.1639
65.9066
68.4956
70.7988
72.8789
74.6037
76.0358
77.3142
78.4596
79.3747
80.1014
80.7993
81.6211
82.5669
83.8797
85.7678
88.4605
91.9854
96.5440
102.0182
108.5817
116.4357
125.6012
136.0642
148.0054
161.4871
176.5511
193.3084
211.7035
231.9240
253.7614
277.4172
302.7247
329.3991
357.1835
385.7585
414.3810
442.4260
469.0393
493.2280
514.0474
530.4907
541.8149
547.1518
545.7098
537.0514
520.8154
496.9186
465.5346
427.0036
382.2353
332.0770
277.4036
219.3819
159.1021
97.6128
36.1431
-24.2861
-82.5011
-133.8493
-177.5319
-213.0213
-240.1577
-258.6287
-268.1633
-268.9005
-260.9444
-244.4410
-219.7581
-187.2501
-147.7502
-109.4391
-72.7402
-37.9315
-5.6378
23.7588
49.9389
72.6594
91.6496
106.7843
117.8137
124.6335
127.4242
129.9707
132.2104
134.0044
135.7832
137.4775
138.9969
140.4665
141.9834
143.4087
145.0828
146.9848
149.1147
151.6530
154.4470
157.5384
160.6284
163.6894
166.8255
169.8562
172.6772
175.3719
177.6417
179.4519
180.8580
181.6795
182.1524
182.3115
182.1776
182.0703
181.9060
181.7126
181.5526
181.4191
181.3884
181.5300
181.8022
182.6703
184.0301
185.8261
188.2179
190.9140
193.9350
197.3992
201.2787
205.6151
210.3947
215.7423
221.4983
226.9404
232.0200
236.7649
241.0501
244.7992
248.1164
250.9044
253.0660
254.5248
255.3781
255.5077
254.9624
254.1031
252.9925
251.5471
249.8433
248.0409
245.9038
243.4527
240.7850
237.9006
234.7786
231.2663
227.5234
223.5013
219.1166
214.5986
209.9125
205.0166
200.1886
195.5121
191.0424
186.7518
182.5431
178.5204
174.6629
170.9012
167.3811
163.7484
160.0448
156.3536
151.4943
145.3071
137.6392
128.6574
118.4797
107.1962
94.6961
81.0208
66.0801
50.0894
32.9999
14.6172
-2.9406
-19.6943
-35.4773
-50.3660
-64.4993
-77.9674
-90.7495
-102.6651
-113.7489
-123.8828
-133.0252
-140.9261
-148.7660
-156.1352
-163.2212
-170.0310
-176.4535
-182.4053
-187.7752
-192.7023
-196.9990
-200.8876
-204.3263
-207.5096
-210.3472
-213.2767
-216.1036
-218.8904
-221.6302
-224.3507
-227.0519
-229.7686
-232.6258
-235.5262
-238.5185
-241.5263
-244.4453
-247.1924
-249.7605
-252.1288
-254.3181
-256.3424
-258.2988
-260.4027
-262.5290
-264.7055
-266.9045
-268.9801
-271.1962
-273.3722
-275.6819
-278.0973
-280.6462
-283.4607
-286.4574
-289.1085
-291.6570
-293.9919
-296.1549
-298.4028
-300.2912
-302.0563
-303.3716
-304.1886
-304.4100
-303.7928
-302.4203
-300.5981
-298.2289
-295.3753
-292.1691
-288.5758
-284.8452
-280.7621
-276.6946
-272.6982
-268.8979
-265.4396
-262.3302
-259.4863
-256.8595
-254.5607
-252.4163
-250.1973
-248.0632
-246.1879
-244.4670
-242.9491
-241.5719
-240.3353
-239.2323
-238.3393
-237.6356
-237.0238
-236.4832
-236.1943
-236.0113
-235.6842
-235.1297
-234.2990
-233.2826
-231.9485
-230.1161
-227.7716
-224.9565
-221.6224
-217.8386
-213.7371
-209.2623
-204.8865
-200.5819
-196.3554
-192.1307
-188.1021
-184.5267
-181.4948
-179.0201
-177.1999
-175.9788
-175.1482
-174.7361
-174.3258
-174.1256
-174.1077
-174.2790
-174.4105
-174.3909
-174.0051
-173.2182
-172.0304
-170.5457
-168.8198
-166.8456
-164.7829
-162.4860
-159.9546
-157.1821
-154.4807
-151.8367
-149.3750
-147.1582
-145.0127
-143.0564
-141.2131
-139.5312
-137.9623
-136.4924
-135.1701
-134.0302
-132.8713
-131.6378
-130.3159
-128.9263
-127.6565
-126.1525
-124.5462
-122.8722
-121.2347
-119.6130
-118.0208
-116.0763
-113.8142
-111.4290
-108.9275
-106.2403
-103.2980
-100.2465
-96.9815
-93.3294
-89.0959
-84.4336
-79.3635
-74.5243
-69.8468
-65.2266
-60.5874
-55.9293
-51.4188
-47.0977
-43.0146
-39.3986
-36.3052
-33.5957
-31.0339
-28.3419
-25.6519
-22.8109
-19.8884
-16.8289
-13.3546
-9.5072
-5.3145
-0.7833
4.0794
9.1138
14.0282
18.7811
23.4210
27.6701
31.4868
34.7044
37.1493
38.8284
39.8320
40.3060
40.1392
39.5677
38.7096
37.5650
36.2726
34.8672
33.3835
31.8493
30.2507
28.5947
26.7424
24.6798
22.3861
19.7364
16.7515
13.5911
10.0468
6.3964
2.5358
-1.2711
-4.8855
-8.2448
-11.2450
-13.9345
-16.1468
-17.8262
-18.9868
-19.7673
-20.0566
-20.0076
-19.3564
-18.4223
-17.2540
-15.9071
-14.3259
-12.2953
-9.9472
-7.3371
-4.5206
-1.5324
1.6623
4.9105
7.9694
11.0124
13.8383
16.5025
18.8523
20.5959
21.8724
22.6123
22.8710
22.8015
22.4106
21.9135
21.4354
20.9623
21.0290
21.7187
23.0801
25.2104
28.1583
32.1875
37.4995
44.1221
52.0067
61.2504
72.0755
84.6279
98.5325
113.7338
130.4818
149.2070
169.8052
192.0752
215.9196
241.2829
268.0887
296.0314
324.6181
353.3348
381.7509
409.4359
435.7093
459.2515
479.3474
495.4205
506.6028
512.1234
511.3990
503.8950
489.3959
467.7004
438.8641
403.0259
360.4427
312.0867
258.8469
201.3828
140.7710
78.1573
14.7083
-48.2635
-109.6191
-168.1087
-222.6071
-272.2255
-316.0750
-353.6348
-384.5854
-405.9963
-417.9855
-420.8308
-414.9559
-401.1592
-380.3089
-353.2106
-320.8295
-284.0337
-243.7814
-200.8575
-156.1716
-115.2446
-78.3195
-45.5909
-17.1766
7.1732
27.6114
44.2698
57.3986
67.3518
74.3378
78.5232
80.3803
82.3953
84.5333
86.7804
89.1715
91.5954
94.0937
96.6040
99.1401
101.4244
103.4844
105.3967
107.1613
108.6670
110.0805
111.4434
112.7697
114.0594
115.2430
115.9177
116.0349
115.6711
114.9303
113.5973
111.6583
109.2312
106.3092
102.8921
98.9593
94.4829
89.6018
85.1147
80.9728
77.4541
74.3640
71.9733
70.2266
69.2836
68.9428
69.2042
70.1305
71.8187
74.1370
76.6547
79.5039
82.3581
85.5091
88.7831
92.0622
95.1589
98.2467
101.4090
104.4375
107.1794
109.7110
112.1436
114.3034
116.2738
117.9021
119.3549
120.7433
122.0603
123.2992
124.3625
125.5350
126.9488
128.6454
130.7290
133.4566
136.8350
140.8158
145.2114
150.0357
155.4206
161.1925
167.2960
173.4739
179.7125
185.7895
191.4827
196.5908
201.1553
205.1554
208.7024
211.8377
214.3948
216.5335
218.3439
219.9093
221.2508
222.5279
223.7129
224.8058
225.7926
226.7360
227.6012
228.1937
228.6664
228.9080
228.9256
228.6984
228.2123
227.4814
226.6029
225.4795
224.1529
222.5953
220.8485
219.0998
217.3354
215.6665
213.9680
212.2955
210.4684
208.5353
206.4686
204.4417
202.3366
200.0492
197.6003
194.7399
191.4402
187.6110
183.3981
178.7875
173.8627
168.4778
161.6537
153.4319
143.9029
133.3165
121.5756
109.0830
95.8178
81.9675
67.4974
52.5047
37.0242
21.2087
7.0233
-5.6082
-16.7276
-26.4876
-34.9229
-42.2557
-48.5486
-53.9752
-58.4382
-62.1251
-64.8762
-66.8513
-68.7794
-70.7092
-72.5296
-74.1990
-75.6338
-76.7440
-77.4045
-77.5667
-77.4597
-76.8544
-75.8965
-74.5237
-73.1595
-71.6997
-70.3527
-69.1393
-68.0109
-67.1827
-66.6965
-66.5174
-66.4719
-66.7545
-67.3581
-68.2203
-69.1675
-70.2413
-71.1431
-71.8938
-72.4655
-72.6152
-72.3637
-71.7457
-70.6850
-69.1466
-67.0891
-64.5608
-61.4578
-57.8356
-54.0343
-50.0055
-45.9365
-41.9178
-37.9145
-33.9128
-30.1834
-26.8029
-23.8683
-21.2825
-19.2816
-17.8238
-16.7149
-16.0311
-15.7099
-15.8555
-16.5930
-17.9847
-19.8432
-21.9463
-24.1134
-26.4347
-28.6048
-30.5403
-32.2203
-33.5824
-34.4389
-34.5817
-33.8441
-32.0940
-29.4148
-25.7926
-21.4150
-16.4138
-11.0668
-5.6172
-0.2870
4.8543
9.4733
13.4103
16.5611
18.5925
19.6502
19.3940
17.9628
15.5511
12.3532
8.4941
4.2796
-0.2350
-4.8482
-9.3863
-13.8703
-17.8487
-21.5507
-24.5874
-27.0837
-29.1162
-30.7680
-31.9420
-32.7771
-33.1830
-33.1665
-33.0195
-32.5196
-31.9863
-31.2321
-30.4444
-29.6581
-28.7828
-27.8740
-27.0638
-26.3312
-25.8360
-25.5782
-25.3842
-25.4692
-25.6804
-26.1429
-26.9330
-27.8703
-29.1490
-30.7067
-32.4046
-34.2009
-36.0539
-37.8943
-39.7845
-41.6620
-43.6241
-45.5248
-47.3295
-49.1978
-50.9285
-52.4381
-53.8933
-55.3636
-56.6614
-57.8076
-58.6840
-59.3533
-59.6349
-59.6467
-59.2707
-58.3820
-57.0638
-55.4759
-53.3475
-50.6715
-47.7536
-44.7464
-41.6709
-38.5756
-35.6620
-32.8535
-30.2962
-28.0385
-26.1012
-24.3178
-22.9313
-21.9138
-21.0432
-20.2986
-19.8120
-19.4305
-19.0569
-18.7677
-18.4656
-18.2131
-17.9199
-17.7804
-17.6766
-17.7821
-18.2844
-18.9682
-19.8473
-20.9496
-22.3306
-23.9626
-25.9357
-28.0833
-30.6208
-33.3049
-36.2678
-39.2870
-42.0780
-44.8976
-47.5236
-49.9630
-52.1324
-54.0180
-55.4321
-56.5277
-57.1310
-57.5198
-57.4025
-56.9666
-56.4342
-55.6596
-54.7608
-53.7655
-52.7502
-51.7148
-50.7705
-49.8824
-49.0090
-47.9905
-47.1533
-46.3237
-45.5505
-44.7918
-44.1241
-43.6030
-43.2006
-42.9100
-42.7937
-42.8864
-43.2437
-43.8724
-44.5574
-45.2500
-45.8043
-46.2411
-46.4148
-46.2626
-45.7500
-44.9393
-43.7473
-42.1184
-40.0387
-37.4317
-34.4573
-31.2891
-27.9686
-24.5167
-21.0375
-17.3020
-11.9419
-5.2908
2.0126
9.4197
16.2916
22.0658
26.2422
28.4112
28.1492
24.9285
18.3114
7.5063
-10.5005
-35.1884
-65.4947
-100.3848
-138.6572
-179.1176
-220.4741
-261.4283
-300.7926
-337.3586
-369.7723
-396.8391
-416.5381
-428.4528
-432.7567
-429.8110
-420.1086
-404.6357
-384.3576
-360.4131
-333.8716
-305.7541
-277.2896
-249.2976
-222.3475
-197.2102
-174.1842
-153.3807
-135.0288
-118.5105
-103.6521
-90.2245
-77.9081
-66.4184
-55.6024
-45.3631
-35.4849
-25.9403
-16.7500
-7.9974
0.4149
7.7298
14.0515
19.3731
23.6807
26.9743
29.4553
32.2974
35.4033
38.9883
43.1218
47.9359
53.4721
60.2097
68.1209
77.3792
87.8460
99.5974
112.6960
125.0794
136.7545
147.8185
158.1534
167.6064
176.1428
183.5612
189.7505
194.6343
198.2891
200.6870
201.7169
202.3164
202.4230
201.7728
200.3658
198.1880
195.2605
191.6317
187.4683
182.7080
177.5450
171.7850
165.4141
158.3698
150.7632
142.8027
134.6758
126.3339
117.8255
109.3243
100.8026
92.3576
83.7878
75.4475
67.3645
59.7887
52.7271
46.0895
39.7231
33.9264
28.6926
23.9036
19.5317
15.4657
11.8792
8.4182
5.2215
1.9696
-1.3582
-4.6370
-7.7001
-10.6447
-13.4915
-16.3032
-19.2533
-22.2307
-25.4784
-28.5659
-31.7362
-34.7741
-37.6031
-40.3829
-43.3497
-46.6770
-50.3094
-54.1981
-57.8779
-61.3835
-64.6176
-68.0039
-71.3063
-74.4691
-77.7772
-81.0291
-84.0372
-86.6419
-88.9959
-90.8840
-92.7089
-94.5192
-96.1136
-97.3461
-98.3834
-99.3228
-99.8447
-100.2340
-100.5253
-100.7811
-100.9737
-101.3529
-101.8425
-102.2202
-102.8262
-103.5495
-104.2024
-104.8546
-105.5476
-106.0800
-106.4518
-106.6352
-106.5400
-106.0272
-105.0899
-104.0684
-102.7057
-101.0226
-99.2205
-97.2786
-95.2316
-93.1558
-91.2041
-89.3347
-87.4644
-85.7041
-84.1234
-82.4723
-80.7646
-79.2294
-77.8460
-76.3991
-75.0344
-73.7312
-72.2949
-70.8437
-69.5372
-68.2922
-66.9765
-65.6528
-64.2933
-62.6409
-60.6888
-58.7425
-56.5381
-54.1381
-51.7438
-49.2789
-46.6948
-44.1511
-41.6409
-39.2754
-37.2211
-35.5128
-34.0324
-32.6618
-31.6442
-30.9378
-30.2440
-29.5072
-28.9150
-28.1548
-27.2752
-26.1859
-24.9565
-23.7951
-22.6532
-21.4475
-20.1015
-18.6291
-17.3150
-16.4163
-15.5508
-15.0936
-15.0865
-15.5640
-16.3456
-17.1674
-18.3211
-19.7373
-21.3464
-23.0582
-24.6712
-25.8314
-26.8235
-27.3556
-27.3932
-26.9154
-25.8874
-24.5315
-22.6462
-20.5789
-18.3502
-16.0783
-13.9506
-12.2241
-10.8154
-9.8704
-9.5210
-9.5102
-10.0673
-10.9838
-12.2806
-13.6382
-15.1400
-16.7303
-18.1176
-19.1768
-19.9149
-20.3665
-20.1983
-19.8062
-18.9957
-17.7320
-16.1471
-14.2480
-12.1387
-9.8333
-7.6580
-5.6822
-3.8991
-2.2601
-1.0011
-0.1015
0.5362
0.5923
0.3100
2.3976
7.2996
15.2799
26.7412
41.8849
60.8084
83.5879
110.1957
140.6596
174.5283
211.7322
251.8547
288.8333
321.7167
349.7549
372.0172
387.8510
396.6520
397.9134
391.3365
376.7131
354.1541
323.6944
285.5423
242.8506
196.4596
146.9664
95.2948
42.1530
-11.6464
-65.1659
-117.6069
-168.0945
-215.9132
-260.1257
-299.9194
-334.4609
-363.3892
-386.3917
-403.3157
-414.0013
-418.3654
-416.7759
-409.6634
-397.5417
-380.9734
-360.8820
-338.0940
-313.6440
-288.2751
-262.6679
-237.4751
-213.3008
-190.8605
-170.3414
-151.7645
-135.3451
-121.0206
-108.6730
-98.4342
-89.9570
-83.0746
-77.4608
-72.7544
-68.8234
-65.3345
-62.4058
-60.1622
-58.4718
-57.4805
-57.0284
-57.2336
-58.0059
-59.3314
-61.3281
-64.1696
-67.7101
-71.9148
-76.3254
-80.6919
-84.9102
-88.7996
-92.4852
-95.3210
-97.5225
-99.1590
-100.0014
-100.0566
-99.3592
-97.9649
-96.3112
-94.5578
-92.8018
-91.0989
-89.3379
-87.7827
-86.4263
-85.0119
-83.9004
-83.0503
-82.4060
-81.9257
-81.4082
-80.9922
-80.7959
-80.7845
-81.1247
-81.8095
-82.7209
-84.0949
-85.6330
-87.1893
-88.9096
-90.8217
-92.9187
-94.7561
-95.9867
-96.6105
-96.5025
-95.8779
-94.8270
-93.2595
-91.2588
-88.9569
-86.2008
-82.9976
-79.4515
-75.8401
-72.4829
-69.4356
-66.7536
-64.1313
-61.3952
-58.5939
-55.7413
-52.8303
-49.9930
-47.2988
-44.6157
-41.9853
-39.2551
-36.4039
-33.3348
-30.1586
-27.2020
-24.3050
-21.5441
-18.8846
-16.3612
-13.8975
-11.5074
-9.1284
-6.7395
-4.2854
-1.9535
0.2563
2.6009
4.8649
7.1874
9.5544
12.0700
14.7690
17.3529
19.7382
21.8208
23.4688
24.8488
25.8151
26.3120
26.3673
25.7588
24.2713
21.8908
18.5965
14.7496
10.4612
5.7381
0.6777
-4.7201
-10.3094
-16.1111
-22.0835
-27.9766
-33.4640
-38.5942
-43.3674
-47.8947
-52.0786
-55.9403
-59.5489
-62.9186
-66.0491
-68.8573
-71.3917
-73.8259
-76.3266
-78.8730
-81.4928
-84.3735
-87.7027
-91.7094
-96.1924
-101.2626
-106.9272
-113.2831
-120.1917
-127.5417
-135.2638
-143.3578
-151.8031
-160.2592
-168.5874
-176.2112
-183.2903
-189.6373
-195.3632
-200.3709
-204.7297
-208.4327
-211.6259
-214.1910
-216.1489
-217.6872
-218.9100
-219.9839
-221.0131
-222.1088
-223.1946
-224.3398
-225.5932
-227.0171
-228.4866
-230.1129
-231.8403
-233.5855
-235.2444
-237.0461
-238.6920
-240.1126
-241.1136
-241.6879
-241.6482
-240.8623
-239.2540
-236.6843
-233.1950
-228.6956
-223.3113
-216.8754
-209.6309
-201.6404
-193.1468
-184.1988
-175.0186
-165.7937
-156.6006
-147.7724
-138.2746
-128.4613
-118.2769
-107.8672
-97.2046
-86.3792
-75.2244
-63.6291
-51.5099
-38.7141
-25.3111
-10.9121
2.4553
15.0617
26.9142
38.2073
49.0172
59.5037
69.4794
78.8470
87.5786
95.4522
102.4677
108.4792
114.3478
120.0389
125.5386
130.6802
135.3733
139.5556
143.4075
146.9360
150.2036
153.4534
156.7894
160.0521
163.4983
167.0308
170.5871
174.1325
177.7156
181.2808
184.6893
187.9410
190.9874
193.9464
196.8042
199.6650
202.3967
205.0898
207.9247
211.0264
214.4783
218.3707
222.6479
227.4488
232.7389
238.1151
243.4874
248.8626
254.2546
259.7328
265.0543
270.2328
275.1989
279.8485
284.3760
288.5730
292.5230
296.3647
300.1677
303.8624
307.4142
310.6563
313.7277
316.4548
318.7125
320.5633
321.8267
322.5860
322.7648
322.3215
321.2352
319.7281
317.8697
315.7711
313.4044
310.9850
308.0407
304.5922
300.7368
296.4606
291.8260
287.0415
282.1834
277.1337
271.7395
265.9244
259.7510
253.1707
247.2390
241.9697
237.3699
233.6269
230.5951
228.1146
226.1160
224.5090
223.4325
222.8517
222.6626
222.8512
223.1466
223.4101
223.6553
223.5075
223.2442
222.9142
222.4063
221.9357
221.4054
220.9610
220.7067
220.5107
220.0534
219.5015
218.7994
218.3569
217.9031
217.4103
217.0589
216.6268
216.1904
215.7079
215.0752
214.4728
214.1369
214.0049
214.0699
214.1028
214.3187
214.7524
215.2790
216.3983
218.2146
220.8736
224.5768
229.4006
235.2685
242.3680
251.0533
261.5328
273.7925
288.0407
304.6178
322.8709
342.9112
364.6205
387.8878
412.5117
438.3810
465.2319
492.4462
519.5727
546.2154
571.6035
594.9106
615.6785
633.0111
646.1516
654.4264
657.2174
654.1635
644.7716
628.9653
606.6890
577.9359
543.2823
503.2003
458.5303
410.1126
358.8568
305.7421
251.8311
197.8875
144.9808
93.9305
45.6115
1.0031
-39.4574
-75.1379
-105.6982
-130.8467
-150.2222
-163.7553
-171.4877
-173.4818
-170.1336
-161.6583
-148.6115
-131.7918
-111.7339
-89.0628
-64.6605
-39.2909
-13.7804
11.1765
35.0452
57.3881
77.9622
96.3715
112.4773
126.4809
138.4309
148.2648
156.6006
163.8411
170.1390
175.7167
180.6851
185.0860
189.0165
192.5045
195.6540
198.3471
200.4100
201.9470
202.7150
202.6515
201.8744
200.5159
198.6730
196.4916
193.9786
191.3840
188.7843
186.0613
183.5136
181.1204
178.9372
176.8113
174.7356
172.6408
170.5199
168.4006
166.4080
164.3476
162.2262
160.2593
158.2870
156.4136
154.4722
152.6436
150.9832
149.4007
147.9308
146.5736
145.1832
143.9123
142.7888
141.7293
140.8518
140.0452
139.0664
137.8877
136.3979
134.7776
133.0199
131.0204
128.8279
126.3729
123.4540
120.2240
116.5716
112.6429
109.2293
106.3171
103.9270
102.0104
100.4076
99.2227
98.5460
98.3498
98.8561
99.8221
101.3864
103.3339
105.2271
107.0033
108.8294
110.4830
112.1308
113.7241
115.0895
116.3240
117.3582
118.3240
119.1521
119.9673
120.7628
121.5940
122.1762
122.8498
123.5591
124.2208
124.8765
125.4707
126.0381
126.6342
127.1549
127.5931
128.0393
128.4863
129.1426
129.6886
129.9786
130.0541
130.0125
129.7147
129.1261
128.1495
126.9583
125.6152
123.9395
122.0424
119.7849
117.3476
114.9388
112.6627
110.4220
108.2584
106.0261
103.7458
101.2231
98.3747
95.3533
91.9020
88.1388
84.1609
79.9753
75.4778
70.7447
65.8247
60.8080
55.7293
50.6165
45.4486
40.0867
34.6629
29.0242
22.9624
16.4010
9.3331
1.1476
-7.9749
-17.9304
-28.7953
-40.3472
-52.5586
-65.2001
-78.2996
-91.6210
-104.9559
-118.4086
-131.8472
-144.0771
-155.3067
-165.6680
-175.1402
-183.8969
-191.9658
-199.4303
-206.2419
-212.5325
-218.3506
-223.5158
-228.0837
-232.5889
-236.9481
-240.9739
-244.5343
-247.5807
-249.9673
-251.7705
-253.0250
-253.7101
-253.9784
-253.9273
-254.5845
-255.9847
-258.1350
-261.2020
-265.2481
-270.2874
-276.5003
-283.8661
-292.4056
-302.1049
-312.8945
-324.6496
-335.4812
-345.4449
-354.5337
-362.6644
-369.7605
-375.7735
-380.5714
-384.0154
-385.9943
-386.4526
-385.3903
-383.0158
-380.0791
-376.5871
-372.4842
-367.8123
-362.8004
-357.5665
-352.0414
-346.5722
-341.2005
-336.2320
-331.6112
-327.2129
-323.2873
-319.7996
-316.9651
-314.7700
-313.0823
-311.8394
-311.2707
-311.0636
-311.1070
-311.0189
-310.9383
-310.9069
-310.7024
-310.3943
-309.7882
-308.8216
-307.6541
-306.2095
-304.3627
-302.2180
-299.9767
-297.8610
-295.6001
-293.1386
-290.6291
-287.9884
-285.2442
-282.5632
-279.7302
-276.8077
-273.9137
-271.0135
-268.1210
-265.2294
-262.5329
-260.0456
-257.6633
-255.4485
-253.3804
-251.3062
-249.3023
-247.5215
-245.7972
-244.1640
-242.6637
-241.1226
-239.6033
-238.0016
-236.3592
-234.6622
-233.0356
-231.6323
-230.3827
-229.0785
-227.8101
-226.6747
-225.4292
-224.2125
-222.9414
-221.8796
-221.0898
-220.6969
-220.5273
-220.4213
-220.4692
-220.7752
-221.2838
-221.8004
-222.4016
-223.1289
-223.8643
-224.4343
-224.7486
-224.4251
-223.6446
-222.3514
-220.3026
-217.5813
-214.1183
-209.9899
-205.3837
-200.2023
-194.5709
-188.5519
-182.2217
-175.9415
-169.5793
-163.3642
-157.6853
-152.3481
-147.5469
-143.3166
-139.4696
-136.0685
-133.2592
-131.0346
-129.2975
-127.8814
-126.8278
-126.0118
-125.2668
-124.6274
-124.0242
-123.3809
-122.6905
-121.8836
-119.0505
-113.8508
-106.2152
-96.0534
-83.1224
-67.2971
-48.3693
-26.2555
-0.7198
28.1963
60.3537
95.6901
130.6846
164.6496
196.9740
227.1162
254.1456
277.4303
296.0327
309.3139
316.3711
316.6559
309.9527
295.8797
275.7911
249.7633
218.0739
181.0841
139.4467
93.7658
45.0206
-6.1153
-58.5863
-111.5453
-164.3743
-216.2536
-266.1696
-313.2958
-356.7919
-395.9913
-430.3175
-459.3124
-482.7675
-500.2870
-511.7737
-517.1998
-516.5515
-510.1205
-498.4414
-481.8754
-461.1655
-437.2006
-410.5989
-382.2769
-352.8806
-323.2987
-294.3925
-266.7314
-240.9543
-217.4083
-196.3783
-178.3365
-163.2273
-150.7521
-140.8276
-133.0025
-127.0544
-122.6153
-119.1367
-116.4866
-114.2762
-112.3039
-110.2991
-107.9840
-105.4418
-102.7698
-100.0861
-97.5435
-95.1558
-92.9717
-91.1995
-89.5754
-88.3423
-87.3962
-86.8064
-86.5384
-86.3836
-86.2450
-85.9975
-85.5023
-84.8010
-83.7895
-82.4955
-81.1691
-79.5671
-77.7800
-75.8562
-73.7473
-71.5712
-69.4739
-67.5246
-66.0083
-64.8693
-64.3229
-64.1955
-64.4176
-65.0658
-66.0496
-67.2997
-68.9063
-70.7444
-72.5641
-74.1431
-75.2176
-75.8639
-75.9988
-75.7054
-74.9354
-73.6955
-72.1178
-70.1674
-67.7821
-65.1283
-62.3103
-59.5850
-57.0150
-54.4196
-51.7851
-49.1252
-46.4469
-43.7434
-40.9660
-38.2396
-35.5366
-32.8222
-30.0686
-27.2064
-24.1939
-21.2534
-18.3571
-15.4841
-12.6484
-9.9263
-7.2692
-4.5175
-1.8169
0.9159
3.5280
5.9848
8.1891
10.1755
12.0483
13.6476
14.9180
16.0053
16.8261
17.3804
17.8627
18.2660
18.7014
19.3217
20.2450
21.6101
23.8824
27.2562
31.7732
37.3640
44.0910
51.8641
60.4609
69.7772
79.8757
90.5549
101.8148
113.4609
124.4516
134.6758
144.2167
153.0606
161.1726
168.3306
174.8193
180.6386
185.6566
189.9151
193.2264
195.6740
197.6813
199.4221
200.6950
201.4929
201.7882
201.8307
201.4470
200.8036
199.9214
198.9185
197.9129
197.0018
196.0950
195.1646
194.2593
193.3651
190.8294
186.8049
181.1943
173.8380
164.7914
154.0407
141.5373
127.3923
111.7307
94.3859
75.5522
55.2921
36.8488
19.8889
4.5651
-9.0669
-21.0212
-31.4156
-40.2225
-47.7544
-53.8862
-58.6110
-62.0469
-64.1660
-66.2741
-68.0515
-69.6025
-70.9617
-72.0182
-72.6746
-72.8963
-72.5234
-71.7089
-70.3832
-68.6436
-66.6359
-64.6795
-62.9898
-61.5111
-60.0907
-58.9926
-58.1541
-57.5683
-57.3117
-57.3286
-57.5010
-57.6207
-57.5764
-57.3751
-56.9057
-56.1057
-55.2043
-53.9793
-52.6597
-51.2040
-49.3344
-47.0300
-44.4366
-41.6724
-38.7929
-35.7633
-32.5698
-29.3026
-25.7604
-22.0264
-17.9618
-13.7194
-9.7020
-5.8539
-2.1891
1.2229
4.3128
7.2472
9.8387
12.1149
13.9856
15.3952
16.3786
17.2203
17.9760
18.5346
19.0280
19.5464
20.2843
21.1515
22.2730
23.6973
25.3898
27.4059
29.7249
32.0065
34.3618
36.7561
38.9741
41.1131
43.0063
44.5843
45.9236
46.9476
47.7954
48.4947
49.0872
49.6145
50.1323
50.6543
51.2778
51.7112
52.0447
52.2852
52.2940
52.1196
51.6092
50.7212
49.4347
47.9442
46.2219
44.4136
42.6653
41.2685
40.3135
39.7865
39.8193
40.3774
41.4953
43.1870
45.3553
47.9724
51.0800
54.3447
57.6694
60.8803
63.8734
66.6001
69.0047
71.1082
72.9174
74.5574
76.1255
77.4340
78.4206
79.4601
80.5874
81.8719
83.2442
84.8570
86.7103
88.7278
90.9442
93.1858
95.2860
97.5366
99.8193
101.9051
103.6412
105.0832
106.2241
107.0639
107.5123
107.6875
107.5963
107.3151
106.9690
106.3913
105.7625
105.3119
105.3588
105.6742
106.4315
107.5198
109.1196
111.1128
113.4785
115.9669
118.7238
121.6588
124.6817
127.5008
129.7342
131.6181
132.9787
133.9065
134.2416
134.1994
133.7867
133.4135
132.9406
132.4307
131.9324
131.6610
131.6441
131.8334
132.3467
133.1146
134.0886
135.0882
136.1271
136.9345
137.4620
137.6885
137.6281
137.2044
136.7159
136.1349
135.3017
134.3898
133.6077
132.5734
131.2383
129.7899
128.3323
126.9281
125.5079
124.1549
122.7581
121.3452
120.1107
118.9158
117.4896
116.5890
116.2140
116.1217
116.2356
116.5835
117.1723
117.8355
118.4687
118.9541
119.2846
119.3561
119.6547
119.8888
120.0444
120.3438
120.8703
121.6518
122.6743
124.0490
125.8522
128.2228
131.0568
134.2984
137.5312
140.6648
143.7616
146.7871
149.6926
152.3322
154.8172
157.0710
159.0452
160.6146
161.7933
162.8242
163.7005
164.5957
165.4543
166.1444
166.4923
166.6092
166.4048
165.9556
165.1850
164.1419
162.8121
161.0153
158.8625
156.1107
152.8363
149.2129
145.4211
141.4469
137.3252
133.1322
129.1389
125.5745
122.3208
119.6557
117.5791
116.1259
115.1293
114.5199
114.2074
114.1850
114.5081
115.0518
115.5799
115.7384
115.9855
116.0019
115.9055
115.8075
115.9371
116.2526
116.7749
117.4067
117.9814
118.5476
119.1123
119.9393
120.4592
120.9568
121.1960
121.1489
120.6906
119.8628
118.8390
117.7027
116.6899
115.6688
114.7850
113.8166
113.0897
112.3198
111.6874
111.1716
110.8905
110.9137
111.0951
111.6641
112.3915
113.6106
115.2520
117.6143
120.7252
124.8349
129.9432
136.1753
143.5242
152.1009
162.1000
173.2853
186.0666
200.2495
216.1117
233.6185
252.8741
273.9202
296.8123
321.6061
348.1555
376.2039
405.4802
435.8318
466.6059
497.3997
527.3174
555.4839
580.9758
602.9388
620.5257
632.8338
639.2381
639.1274
631.9948
617.4793
595.5738
566.3688
530.3988
488.4557
441.4074
390.0942
335.5231
278.5900
220.2531
161.6237
106.4447
55.7301
10.2021
-29.3755
-62.5858
-89.1165
-108.8494
-121.5485
-127.3595
-125.9700
-117.5396
-102.4364
-86.3201
-69.7186
-53.0414
-36.7678
-21.3352
-7.2228
5.2916
15.7289
23.9710
29.3443
31.8559
31.3875
30.3838
28.9419
26.9576
24.4657
21.6955
18.8829
16.0141
13.1239
10.3164
7.8000
5.4427
3.3487
1.5667
0.0688
-0.9018
-1.5049
-2.0183
-2.6780
-3.5118
-4.3184
-5.3963
-6.7454
-8.3451
-10.2577
-12.4415
-14.9939
-17.9703
-21.1207
-24.2229
-27.1589
-29.7341
-32.0735
-33.9134
-35.2119
-36.1010
-36.6432
-36.8178
-36.4995
-35.8413
-35.0375
-34.0257
-32.9100
-31.9335
-31.2419
-30.9811
-31.2136
-31.8004
-32.7139
-33.9956
-35.7914
-37.9276
-40.2238
-43.0131
-46.0040
-48.9811
-51.7431
-54.2343
-56.3784
-58.1060
-59.3614
-60.1655
-60.4557
-60.3711
-60.2239
-59.7990
-59.4366
-59.2757
-59.3438
-59.5370
-59.9107
-60.7705
-61.9011
-63.2746
-64.6898
-66.0910
-67.0338
-67.5182
-67.4399
-66.7227
-65.4845
-63.9544
-62.1257
-59.7273
-57.1968
-54.4161
-51.6838
-48.9861
-46.7118
-44.8608
-44.4749
-45.7901
-48.7996
-53.3921
-59.5746
-67.4234
-76.6818
-87.6759
-100.3502
-114.7256
-130.5174
-147.8157
-164.4748
-180.1196
-194.4585
-207.5192
-219.3226
-229.8478
-239.1920
-247.0080
-253.2749
-257.9720
-261.3838
-263.4758
-265.3103
-267.1582
-269.3389
-271.7136
-274.3516
-277.1627
-280.0357
-283.1929
-286.4954
-289.8390
-293.1333
-296.3715
-299.4911
-302.5197
-305.3394
-307.9779
-310.3657
-312.6834
-315.0629
-317.3654
-319.6464
-322.1558
-324.7270
-327.3113
-329.9783
-332.5264
-334.9696
-337.5302
-340.0552
-342.4475
-344.5959
-346.5074
-348.5640
-350.5016
-352.4592
-354.4994
-356.6775
-359.0562
-361.6493
-364.1720
-366.9022
-369.6245
-372.3806
-375.1914
-377.4040
-379.0670
-380.1527
-380.5499
-380.1822
-379.0358
-377.2633
-374.9899
-372.1598
-369.0440
-365.7467
-362.4691
-359.5237
-357.1051
-355.2062
-353.9104
-353.2455
-353.2391
-353.6414
-354.5147
-355.7342
-357.2372
-358.7946
-360.0730
-361.1141
-361.7583
-362.0748
-362.0151
-361.6487
-361.0240
-360.2315
-359.1391
-357.7052
-356.1588
-354.5626
-353.1110
-351.8802
-350.9884
-350.3106
-349.9023
-349.7010
-349.6095
-349.5860
-349.8528
-350.4863
-351.2921
-352.3534
-353.7535
-355.2287
-356.7232
-358.2024
-359.6108
-361.0038
-362.4161
-363.9312
-365.2365
-366.4360
-367.3980
-368.2266
-368.6855
-369.0318
-369.1197
-369.2060
-369.3810
-369.4919
-369.6985
-369.7924
-370.0653
-370.3435
-370.7382
-371.0409
-371.4046
-371.6902
-372.1061
-372.4717
-372.8218
-373.1633
-373.4197
-373.8690
-374.3720
-374.9914
-375.5189
-376.0862
-376.7838
-377.4518
-378.0209
-378.4910
-378.6954
-378.6898
-378.2795
-377.2980
-375.7800
-373.8227
-371.9400
-370.1526
-368.2176
-366.3987
-364.6822
-363.0402
-361.5978
-360.0909
-358.7489
-357.6966
-356.8785
-356.2807
-355.4310
-354.0516
-352.1494
-349.7036
-346.6655
-343.1603
-339.1253
-335.1646
-331.2854
-327.3764
-323.4445
-319.4134
-315.4844
-311.9771
-309.1552
-306.9285
-305.3178
-304.2050
-303.4860
-302.9316
-302.1876
-301.3443
-300.3462
-299.1028
-297.6630
-295.9362
-293.7491
-291.1292
-288.1878
-284.9456
-281.6526
-278.1422
-274.8588
-271.7260
-269.0632
-266.9399
-265.2936
-264.0895
-263.3068
-262.9594
-262.9570
-263.2926
-263.6469
-264.1169
-264.3764
-264.3766
-263.6871
-262.3217
-260.1415
-257.1396
-253.2812
-248.4205
-242.4534
-235.4284
-227.5677
-218.8575
-209.2700
-198.9440
-188.1573
-176.7224
-164.8199
-152.4428
-139.6953
-126.7996
-113.8182
-100.7440
-87.6398
-74.5470
-61.7851
-49.2778
-36.8930
-24.9156
-13.3038
-2.1270
8.5939
18.8936
28.5360
37.5837
45.8700
53.4990
60.5749
67.0561
72.9564
78.2898
83.0979
87.4363
91.4369
95.1900
99.0290
102.9330
107.3881
112.3180
117.7991
123.8799
130.4216
137.5144
145.0265
153.0064
161.4056
170.1407
178.9894
187.8060
196.4447
204.7387
212.7297
220.3276
227.6224
234.5519
241.1853
247.4880
253.3697
258.8721
264.0091
268.9196
273.3882
277.6165
281.3473
284.5878
287.3448
289.6740
291.6724
293.2360
294.4134
295.2324
295.8249
296.2603
296.6706
297.3128
298.4508
300.1470
302.3181
304.9225
307.8143
311.0699
314.6060
318.2976
322.0891
325.7237
329.2360
332.2371
334.7062
336.7336
338.4998
340.0119
341.4503
342.7803
344.1895
345.7333
347.3772
349.4196
351.7564
354.4155
357.2856
360.3113
363.2564
366.1418
369.4883
373.2612
377.3077
381.7250
386.5131
391.3666
396.4589
401.9360
407.8603
414.1346
420.9464
428.2540
434.8353
440.7944
446.1799
450.9432
455.0982
458.9851
462.4513
465.3438
467.7600
469.7276
471.1981
472.2546
473.4043
474.5289
475.6009
476.5229
477.2601
477.4933
477.2223
476.4472
474.9944
472.8638
469.9582
466.2708
461.9681
457.2516
452.2948
447.2923
442.0286
436.6984
431.4057
426.3172
421.5023
417.1347
413.3742
410.1025
407.1670
404.4635
401.7419
398.8704
396.3559
394.1845
392.3076
390.7321
389.3469
387.9784
386.3975
384.7777
383.2371
381.6646
380.1922
378.8406
377.4779
376.0695
374.6569
373.0874
371.6596
370.3457
369.4999
368.9624
368.6847
368.8751
369.5266
370.7712
372.4630
374.7062
377.4939
381.1455
385.5221
390.8876
397.2212
404.8562
414.0634
424.9747
437.7500
452.4447
469.1908
487.9813
508.8719
531.6540
556.2445
575.0600
587.7116
594.0187
593.7453
586.6065
572.5053
551.2748
522.8457
487.1901
444.1346
393.5748
335.4969
284.5815
240.8771
203.8769
173.3933
149.1207
130.8439
118.2087
110.8818
108.5714
111.2082
118.6672
130.9830
140.7807
148.2616
154.0716
158.3149
161.4983
163.6567
165.1510
166.3633
167.4740
168.6917
170.0439
171.5307
173.1937
174.9845
176.6111
178.1988
179.6085
180.8889
182.0609
183.0827
184.0445
184.8424
185.4484
185.7514
185.8487
185.6500
185.2594
184.5034
183.3680
181.8671
179.9382
177.5189
174.5049
170.9239
167.3595
164.0128
160.7798
157.8202
155.0228
152.5196
150.2550
148.2638
146.6501
145.4000
144.6315
144.2892
143.9633
143.6467
143.4507
143.3405
143.4550
143.8567
144.5941
145.6396
146.8263
148.2100
149.6447
151.1721
152.6741
153.9772
154.9632
155.5627
155.5188
154.7759
153.3757
151.4361
149.0267
146.2516
143.2913
140.3404
137.6209
135.3413
133.4668
132.0321
131.3219
131.1210
131.2488
131.6914
132.3654
133.0695
133.6925
134.2137
134.5218
134.4155
134.0475
133.3971
132.3739
131.2071
130.1814
129.0676
128.0394
127.1939
126.5798
125.8845
125.1358
124.4657
123.8672
123.4305
123.1974
123.2095
123.3348
123.8442
124.6543
125.8554
127.3850
129.4236
131.9782
135.0002
138.3853
142.0086
145.8422
149.7543
153.6129
157.3138
160.9403
164.2285
167.2410
169.8179
172.0080
173.7417
175.0121
175.9163
176.3712
176.3905
176.0992
174.7682
172.1821
168.6119
164.0227
158.5604
152.0861
144.7734
136.6015
127.5494
117.6798
106.9648
95.3697
84.2694
73.8307
63.7619
54.1115
44.8865
36.1355
27.6918
19.6527
11.9764
4.6908
-1.9542
-7.9170
-13.7738
-19.5248
-25.0727
-30.4870
-35.7954
-40.9841
-46.0045
-50.9816
-55.9570
-61.0210
-66.5002
-72.4360
-78.9258
-85.9070
-93.1992
-100.7537
-108.4524
-116.3649
-124.4078
-132.3449
-140.0097
-147.2494
-153.9251
-159.9395
-165.2511
-170.0404
-174.3907
-178.3089
-181.9341
-185.0717
-187.7148
-189.8982
-191.8788
-193.7052
-195.3983
-196.9580
-198.4608
-199.8025
-200.9485
-201.9125
-202.6252
-203.1769
-203.6995
-204.3805
-205.0116
-205.5303
-205.8047
-206.0222
-206.0858
-205.8425
-205.4244
-204.9426
-204.3068
-203.6073
-202.6983
-201.4825
-200.0573
-198.6795
-197.5158
-196.3440
-195.1572
-194.2541
-193.6137
-192.9305
-192.4130
-192.0401
-191.8121
-191.7219
-191.8042
-191.7883
-191.6117
-191.4410
-191.3734
-191.2007
-190.8465
-190.5885
-190.3295
-189.7988
-189.1907
-188.5122
-187.5481
-186.5206
-185.3673
-184.0671
-182.6203
-181.1448
-179.5435
-177.8511
-176.1300
-174.5887
-173.1368
-171.7883
-170.7098
-169.7625
-169.1478
-168.6295
-168.1591
-167.6324
-167.2508
-166.7643
-166.0479
-165.2475
-164.2867
-163.1239
-161.7242
-160.1364
-158.0688
-155.9797
-153.7998
-151.6886
-149.6463
-147.8326
-146.4280
-145.3076
-144.5616
-144.2734
-144.4708
-145.0496
-146.2876
-147.7265
-149.3732
-151.1097
-152.6027
-153.8869
-154.8234
-155.4887
-155.9243
-156.0818
-156.0999
-156.0899
-155.8781
-155.7423
-155.8423
-156.0182
-156.8328
-158.0706
-159.7456
-161.6078
-163.5113
-165.4632
-167.0745
-168.3174
-169.2893
-169.8234
-169.8921
-169.8979
-169.4106
-168.7007
-167.8241
-166.9403
-166.0355
-165.1721
-164.5795
-164.2992
-164.2966
-164.6827
-165.3813
-166.0866
-166.7988
-167.3513
-167.6467
-167.6573
-167.4804
-167.1437
-166.6195
-165.7897
-164.6057
-163.0884
-161.2031
-159.2275
-157.3075
-155.5195
-153.8982
-152.6729
-151.8017
-151.1182
-150.6292
-150.4805
-150.6793
-151.1628
-151.7993
-152.3526
-152.7741
-153.1264
-153.3885
-153.3314
-152.9759
-152.3566
-151.6057
-150.6050
-149.4171
-148.0349
-146.6947
-145.3339
-143.9456
-142.4465
-140.8783
-139.1576
-137.5136
-136.1130
-134.7544
-133.4725
-132.2118
-131.0557
-129.9833
-129.1960
-128.7632
-128.5740
-128.6074
-129.0856
-129.5990
-129.8768
-130.0300
-130.1004
-130.2059
-130.1800
-130.0852
-129.6922
-129.0359
-128.2204
-127.3221
-126.1813
-124.9230
-123.7416
-122.6025
-121.5751
-120.4233
-119.3276
-118.2326
-117.2840
-116.4611
-115.6735
-115.3657
-115.5586
-116.2661
-117.3979
-118.9400
-120.7468
-123.0612
-125.7791
-128.6783
-131.8838
-135.3817
-139.3178
-142.7339
-145.7480
-148.4781
-150.9938
-153.3644
-155.5691
-157.5594
-159.3006
-161.0912
-162.6117
-163.6818
-164.2110
-164.6370
-164.7236
-164.4707
-163.8230
-162.7386
-161.3913
-159.7671
-158.0328
-156.0007
-153.9002
-151.8493
-150.0910
-148.6045
-147.7648
-147.3358
-147.3176
-147.6823
-148.2633
-148.8592
-149.2965
-149.5473
-149.6324
-149.5867
-149.1463
-148.3388
-146.8658
-144.9772
-142.8119
-140.7172
-138.7277
-137.0450
-135.8633
-135.3634
-135.3855
-136.0545
-137.3983
-139.3961
-142.0340
-145.2286
-148.8688
-152.2533
-155.3890
-158.2482
-160.6433
-162.4910
-163.9164
-164.7666
-165.0070
-164.7278
-164.0610
-163.0066
-161.5298
-160.1238
-158.8233
-157.6352
-156.5248
-155.4991
-154.5025
-153.2641
-151.8744
-150.1734
-148.1683
-145.8868
-143.3984
-140.6682
-137.8284
-134.8649
-131.9862
-129.2338
-126.6496
-124.7265
-123.3813
-122.8777
-123.1256
-123.9861
-125.3272
-127.0725
-128.2429
-128.7064
-128.2548
-126.6727
-123.7449
-119.0617
-112.4703
-103.6164
-92.3822
-78.6217
-62.2516
-43.0081
-22.1133
0.3701
24.5604
50.3879
77.6723
106.2120
135.6112
165.6269
196.0229
226.1743
255.5601
283.4513
309.6187
333.4025
353.8583
370.2846
382.0982
388.6601
389.6440
384.4180
372.4749
353.7802
328.1949
296.0871
257.8596
214.1720
165.8995
113.9307
58.9464
1.9464
-56.0969
-113.9267
-170.3693
-224.4734
-274.9264
-318.3534
-354.0183
-381.7752
-401.4019
-413.0651
-416.5912
-412.2579
-400.3917
-381.6454
-356.6508
-325.9428
-290.4865
-256.4835
-224.3780
-194.3161
-166.6101
-141.3852
-118.9398
-99.3643
-82.9504
-69.5244
-59.1211
-51.7752
-47.2992
-42.7556
-38.2347
-33.8338
-29.7749
-25.9749
-22.3365
-18.8389
-15.2945
-11.7728
-8.0794
-4.2838
-0.5039
3.2115
6.7792
10.1923
13.7701
17.4015
20.9615
24.4294
27.8120
31.1093
34.1895
37.1774
40.2119
43.4182
46.8725
50.7693
54.7961
59.1195
63.7049
68.6702
73.8350
79.1228
84.4503
89.9077
95.2521
100.3653
105.3308
109.9886
114.5265
118.8262
122.9156
126.5655
129.9773
133.1023
136.0657
138.7284
141.1669
143.2631
144.9198
146.0952
146.7826
146.8916
146.6096
146.0895
145.3660
144.5919
143.6699
142.4958
141.1253
139.8013
138.5795
137.3903
136.2477
135.1864
134.1023
132.9049
131.4972
129.8444
128.0297
126.1506
124.4221
122.7750
121.0077
119.3077
117.5502
115.7281
113.6956
111.6055
109.3466
106.9468
104.3574
101.7243
98.7419
95.3824
91.9791
88.5530
85.2011
82.0208
79.1162
76.3553
73.9188
71.6607
69.7963
68.0966
66.7280
65.6838
64.8806
64.0336
63.2539
62.5555
61.6120
60.4650
59.1908
57.8035
56.0599
54.0990
51.9554
49.5527
46.8147
43.9426
40.8184
37.4351
34.4873
31.9818
29.6895
27.7910
26.3695
25.5292
25.2216
25.6063
26.5376
28.0848
30.1507
32.5410
34.9360
37.2249
39.4561
41.5740
43.5580
45.2273
46.4015
46.9972
47.2714
47.1268
46.6607
46.0953
45.3611
44.5762
43.8170
43.0558
42.3063
41.6311
41.1830
41.0037
40.9612
41.1735
41.5296
41.8975
42.1869
42.5298
42.8220
43.0913
43.1571
43.0056
42.6854
42.1130
41.4484
40.3233
39.0364
37.7753
36.6579
35.4621
34.3614
33.2031
32.2858
31.6303
31.1950
31.0354
30.9155
31.2934
31.9055
32.5641
33.3665
34.3474
35.3332
36.5045
37.6667
38.7853
39.9435
41.1414
42.4969
43.6629
44.7227
45.6832
46.4126
46.9386
47.3236
47.4913
47.6293
47.6125
47.3019
46.7672
45.9666
45.0389
44.1301
43.2609
42.4037
41.5444
40.7735
40.0630
39.1978
38.4347
37.7947
37.2082
36.7101
36.0780
35.1384
33.9746
32.7394
31.4328
29.9437
28.2928
26.5428
24.6173
22.5023
20.1214
17.4817
15.2775
13.3422
11.6342
10.0006
8.5039
7.1720
6.0188
5.0788
4.0398
3.0544
2.1712
1.4528
0.3783
-0.7536
-1.8319
-2.6412
-3.2927
-3.7934
-4.0875
-4.2030
-3.7718
-2.8980
-1.6858
-0.2880
1.2816
2.8215
3.9221
4.4375
4.4510
4.0530
3.1531
1.8764
0.2853
-1.7034
-3.8745
-6.0961
-8.2778
-10.2946
-11.7438
-12.8060
-13.5227
-14.0885
-14.5450
-15.0935
-15.9146
-16.8904
-18.0693
-19.4930
-21.1755
-23.0680
-25.1776
-27.2334
-29.1035
-30.6906
-31.8559
-32.6757
-33.0389
-33.1052
-32.8746
-32.4236
-31.8215
-31.2142
-30.7822
-30.5325
-30.5901
-30.8993
-31.5575
-32.1758
-32.8512
-33.4520
-34.0128
-34.4503
-34.5978
-34.3233
-33.4950
-32.4530
-31.1905
-29.8394
-28.3232
-26.7879
-25.3653
-24.0069
-22.8306
-21.8921
-21.3233
-21.1657
-21.6071
-22.2584
-23.1335
-24.1421
-25.2496
-26.6017
-28.0040
-29.5329
-30.8134
-31.8038
-32.4902
-32.9698
-33.1593
-33.1212
-32.7999
-32.1191
-31.2315
-30.0606
-28.6622
-27.0152
-25.5087
-24.0732
-22.6808
-21.1996
-19.4352
-17.5751
-15.5776
-13.5191
-11.2329
-8.7954
-6.1927
-3.4109
-0.4569
2.6275
5.9049
9.2226
12.3930
15.6730
18.8544
22.0761
25.1018
28.1331
31.1700
34.0596
37.0450
40.0013
42.7408
45.2915
47.6742
49.6805
51.6020
53.0639
53.6772
53.2336
51.7262
49.3979
46.1100
41.9319
37.1135
31.7799
25.9312
19.5950
12.5491
5.1964
-1.3728
-6.9503
-11.6541
-15.5953
-18.7877
-21.0925
-22.6486
-23.5740
-23.8063
-23.3661
-22.2050
-20.6006
-18.9975
-17.6943
-16.5103
-15.4247
-14.3196
-13.3822
-12.5711
-11.7334
-10.9872
-10.1727
-9.2969
-8.2695
-7.2294
-6.0098
-4.7081
-3.3590
-2.1290
-0.9557
0.0636
0.8596
1.6545
2.2955
2.9007
3.7131
4.6841
5.9109
10.7756
18.9933
30.3558
44.4117
60.6540
78.6313
97.6284
117.0759
136.5293
155.1760
172.6273
188.4039
195.3671
193.6000
183.5125
165.4934
140.4941
109.0008
71.8537
30.0737
-15.6725
-64.3990
-115.0569
-166.6533
-214.7992
-258.5017
-297.5107
-330.9303
-358.7537
-380.4807
-395.9934
-405.1459
-408.0007
-404.6898
-395.7547
-381.7859
-363.4707
-341.7397
-316.9887
-290.2595
-262.1978
-233.5606
-205.0214
-177.4623
-151.4110
-127.3466
-105.4358
-85.9356
-68.8112
-53.8057
-40.8983
-29.9221
-20.6135
-12.7848
-6.0889
-0.1645
5.1826
10.2235
15.0830
20.0597
25.1747
30.0875
34.7078
39.0844
43.1825
47.0089
50.4875
53.5348
56.4633
59.0299
61.2140
62.8417
63.9480
64.7411
65.4084
65.8877
66.2967
66.5385
66.5782
66.4506
65.9335
65.2629
64.5500
63.8990
63.3376
62.9979
62.7408
62.6290
62.6624
62.9313
63.4983
64.4952
65.7623
67.3414
69.1143
71.1992
73.4571
75.8326
78.3185
80.9359
83.5180
86.1413
88.8542
91.4209
94.0911
96.7123
99.3885
101.9808
104.5588
107.0877
109.6438
112.2134
114.8727
117.5038
119.8428
122.2160
124.4707
126.7319
128.7080
130.4613
132.1240
133.6126
134.9272
136.0816
137.0412
137.8267
138.9383
139.9938
141.0907
142.1107
143.4638
145.1219
147.0645
149.1802
151.4137
153.6746
155.9837
158.4036
160.5037
162.4438
164.1127
166.2187
168.4216
170.5826
172.5557
174.6119
176.7789
179.2927
182.1327
185.3544
188.9577
193.0259
197.6426
201.6270
205.1042
208.4422
211.7383
214.8189
217.8090
220.3891
222.6495
224.3194
225.5864
226.3461
226.6403
226.9691
227.4157
227.5704
227.3430
226.9348
226.2556
225.3679
224.2786
223.1961
222.1065
221.0583
219.9475
218.7463
217.4060
216.1420
214.9751
213.6969
212.2310
210.6262
208.8198
206.7633
204.3872
201.6361
198.6209
195.1959
191.3680
187.0678
182.4065
175.6617
167.0001
156.5121
144.1698
130.1469
114.4434
97.3232
78.5987
58.7423
37.7261
15.7237
-7.3690
-27.8020
-45.7142
-61.0986
-73.9414
-84.4370
-92.5090
-98.5879
-102.3613
-104.2736
-104.3178
-102.6745
-99.2604
-96.0129
-92.9807
-90.0943
-87.3051
-84.6061
-82.0668
-79.4094
-76.9534
-74.4348
-71.8675
-69.2446
-66.6564
-64.2001
-61.8132
-59.6692
-57.8724
-56.3116
-55.0216
-54.0509
-53.2537
-52.6231
-52.2077
-51.8616
-51.5432
-51.0442
-50.2533
-49.0596
-47.3518
-45.2689
-42.8040
-40.0055
-36.9778
-33.8944
-30.5817
-27.2549
-23.9696
-20.7676
-17.8223
-15.3560
-13.5145
-12.2076
-11.1992
-10.5378
-10.0012
-9.5686
-9.4760
-9.5153
-9.5265
-9.8154
-10.2776
-10.6841
-10.7501
-10.5382
-10.3676
-10.0580
-9.7759
-9.4589
-8.8847
-8.4075
-8.1245
-7.7996
-7.4398
-7.1977
-7.2957
-7.6712
-8.2270
-9.0257
-9.9351
-10.9693
-12.2116
-13.3008
-14.2509
-14.8882
-15.3585
-15.5091
-15.3470
-14.9970
-14.3759
-13.5393
-12.7857
-11.9832
-11.1664
-10.4467
-9.8099
-9.4992
-9.3618
-9.5158
-9.8430
-10.3227
-10.9549
-11.7881
-12.5376
-13.3841
-14.2927
-15.2496
-16.3033
-17.4609
-18.7362
-19.9833
-21.3621
-22.7127
-24.1185
-25.4268
-26.7138
-28.0283
-29.3493
-30.6769
-32.0041
-33.1157
-33.9769
-34.7405
-35.4204
-36.0165
-36.6401
-37.3118
-37.9971
-38.5014
-38.8525
-39.1130
-39.2064
-39.2785
-39.4614
-39.7133
-39.7772
-39.7714
-39.5359
-39.0708
-38.5845
-38.0978
-37.7356
-37.2967
-36.8711
-36.5146
-36.0605
-35.5156
-35.0120
-34.5912
-34.2325
-34.1442
-34.1041
-34.3204
-34.6891
-35.4531
-36.4667
-37.6118
-39.0273
-40.6437
-42.5374
-44.5209
-46.6637
-48.7852
-50.7603
-52.4156
-53.9801
-55.4399
-56.9271
-58.5388
-60.1361
-61.8301
-63.5862
-65.4112
-67.2149
-69.0528
-71.2027
-73.6647
-75.8136
-77.5315
-78.8114
-79.7158
-80.2724
-80.3911
-79.9190
-79.0991
-78.0982
-76.9093
-75.4351
-73.8493
-72.6172
-71.7456
-71.2555
-70.8899
-70.7945
-71.0390
-71.8107
-72.9707
-74.2622
-75.6781
-77.2324
-78.6959
-80.0408
-81.2532
-82.2498
-83.1626
-83.9428
-84.4726
-84.6753
-84.5651
-84.3640
-84.0513
-83.6477
-83.2437
-82.7071
-82.1908
-81.5836
-80.9690
-79.7705
-77.9673
-75.7607
-72.9980
-69.6237
-65.6655
-61.1719
-56.1223
-50.6069
-44.5005
-38.1853
-31.5779
-25.7616
-21.0350
-17.1272
-14.1634
-12.2337
-11.2617
-11.0114
-11.5522
-12.8216
-14.8613
-17.2962
-20.1333
-22.7407
-24.8058
-26.5023
-27.9274
-28.8936
-29.6231
-30.2548
-30.6845
-31.1067
-31.4311
-31.8660
-32.4462
-33.4077
-34.8408
-36.6068
-38.7054
-41.0882
-43.5399
-46.1368
-48.9553
-51.7454
-54.5489
-57.2407
-59.7721
-61.8655
-63.6666
-65.0990
-66.0656
-66.7677
-67.2053
-67.3298
-67.1343
-66.6951
-67.5332
-70.0442
-74.6935
-81.8075
-91.4279
-104.0546
-119.8056
-138.6603
-160.6949
-185.7706
-213.7068
-244.3369
-274.5983
-303.4910
-329.8554
-353.1566
-372.6448
-387.4518
-397.0499
-401.1959
-399.5845
-392.2155
-379.1861
-360.6631
-338.2645
-313.1084
-286.1461
-257.8221
-229.0808
-200.6653
-173.3325
-147.3533
-123.3526
-101.6570
-82.4607
-66.0415
-52.4065
-40.9307
-31.4820
-23.9285
-17.8813
-13.0280
-8.9797
-5.7502
-2.8465
-0.0880
2.4975
5.2155
8.0452
10.8617
13.7690
16.7534
19.7105
22.6335
25.6197
28.7870
31.9132
34.8803
38.0633
41.3232
44.8130
48.4561
52.1901
56.0566
60.1946
64.4304
68.4654
72.1260
75.4609
78.7754
81.7156
84.3231
86.4797
88.2828
89.7671
90.7519
91.2860
91.4387
91.3975
91.3986
91.5531
91.6874
91.9680
92.5340
93.4617
94.6122
96.1314
98.1650
100.5257
103.3522
106.5820
110.1666
113.9185
117.9349
122.1185
126.3096
130.3416
134.1242
137.5324
140.6079
143.3575
145.5452
147.2335
148.3808
149.0564
149.0728
148.5621
148.0311
147.7229
147.9500
148.5041
149.3157
150.4820
152.2809
154.5734
157.3526
160.6949
164.7669
169.3465
173.7183
177.8128
181.4427
185.0246
188.5861
192.0927
195.3430
198.5174
201.5882
204.5276
207.0787
209.6998
212.5715
215.6591
219.0597
222.4817
225.8695
229.2857
232.7927
236.3142
239.8918
243.5185
247.5000
251.3918
255.1661
258.8089
262.3343
265.8047
269.2965
272.7610
276.3025
279.8585
283.4288
287.0275
290.4879
293.9280
297.4797
301.0945
304.5988
307.9646
311.0950
313.9828
316.4683
318.5169
320.1772
321.3936
321.8744
321.5085
320.1778
317.9727
314.9279
311.1822
306.7773
301.6161
295.6289
288.9895
281.5451
273.2401
264.6926
256.0553
247.4950
238.8032
230.0356
221.1296
212.1130
203.0969
194.2481
185.4344
176.8088
168.4060
160.0244
151.7198
143.5060
135.6399
128.2188
121.1385
114.4406
108.1391
102.1158
96.5167
91.2167
86.3547
81.8891
77.7503
73.8204
70.1271
66.4968
63.0267
59.5919
56.0950
52.6473
48.7487
44.5311
39.8765
34.8682
29.4091
23.6101
17.2006
10.3679
3.1468
-4.3724
-12.0716
-19.8815
-27.0173
-33.4998
-39.3222
-44.8246
-49.7431
-54.2029
-57.9677
-61.0932
-63.6627
-65.6761
-67.1612
-68.1945
-69.2204
-70.3708
-71.5763
-72.5104
-73.4789
-74.3010
-74.9907
-75.6105
-76.0910
-76.3904
-76.5366
-76.5504
-76.3484
-75.8474
-75.1514
-74.3995
-73.3971
-72.4498
-71.5992
-70.7413
-69.9037
-69.3088
-68.9217
-68.7772
-68.9656
-69.3341
-69.8203
-70.4171
-71.1315
-71.7135
-72.1909
-72.7720
-73.5124
-74.0996
-74.5544
-74.9254
-75.0738
-75.2286
-75.3761
-75.3843
-75.3921
-75.4480
-75.6215
-75.7530
-75.8354
-75.9521
-76.1239
-76.2883
-76.5426
-76.7965
-77.0639
-77.4974
-78.0764
-78.7731
-79.4832
-80.2831
-81.0966
-81.9999
-83.0416
-84.0344
-84.9850
-85.9908
-87.0101
-88.2581
-89.5057
-90.8849
-92.3470
-93.8017
-95.2699
-96.8696
-98.4134
-100.2624
-102.2915
-104.4174
-106.7165
-108.7097
-110.6816
-112.5489
-114.5340
-116.7408
-119.2320
-121.7783
-124.5604
-127.3004
-130.0053
-132.5847
-134.9833
-137.4092
-139.6889
-141.7599
-143.3652
-144.4007
-144.7970
-144.7067
-144.1646
-143.2958
-142.2738
-141.1890
-140.1732
-139.1639
-138.2932
-137.6929
-137.3909
-137.4566
-137.9385
-138.7256
-139.8388
-141.2015
-142.7375
-144.3843
-145.9612
-147.5586
-149.0237
-150.2245
-151.4042
-152.5070
-153.5123
-154.4131
-154.8829
-154.9079
-154.5090
-153.7694
-152.8697
-151.7892
-150.5971
-149.4464
-148.1147
-146.6785
-145.1031
-143.5690
-142.3401
-141.5830
-141.1173
-140.8596
-140.5667
-140.2527
-139.9245
-139.3251
-138.6836
-137.9724
-137.1497
-136.0975
-134.7880
-133.0407
-131.1680
-129.3922
-127.8730
-126.6242
-125.7432
-125.4800
-125.5566
-125.9454
-126.9589
-128.4998
-130.4015
-132.7473
-135.2942
-137.7434
-139.9493
-141.8216
-143.2212
-144.0442
-144.3946
-144.2586
-143.3652
-141.8258
-139.9387
-137.6902
-135.1289
-132.4423
-129.8595
-127.5542
-125.4221
-123.5467
-121.7820
-120.2115
-118.6962
-117.2361
-115.6785
-114.0094
-112.2498
-110.2676
-107.9378
-105.0106
-101.7427
-97.9189
-93.8587
-89.3469
-84.5846
-79.7180
-74.6634
-69.4628
-64.1785
-59.0258
-54.1923
-49.8792
-46.1145
-43.1203
-40.7369
-39.1448
-38.3858
-38.2375
-38.8251
-40.2318
-42.4159
-45.3637
-48.8111
-52.6541
-56.6287
-60.7696
-65.0353
-69.4395
-73.9962
-78.5387
-82.9628
-87.2200
-91.2477
-94.7612
-97.8438
-100.5581
-103.0707
-105.2219
-107.0325
-108.4192
-109.2917
-110.0597
-110.8205
-111.3726
-111.6744
-111.8510
-111.9578
-111.8837
-111.6149
-111.1167
-110.4028
-109.5706
-108.5437
-107.1623
-105.3639
-103.3083
-101.2246
-99.1337
-96.8967
-94.6524
-92.3592
-90.2185
-88.2927
-86.6028
-85.2737
-84.2638
-83.6632
-83.4791
-83.5516
-83.8807
-84.6888
-85.9896
-87.7692
-89.8333
-88.3624
-83.1690
-74.1697
-61.3090
-44.6633
-24.3299
-0.6280
26.0324
55.3876
87.0000
120.2655
154.5799
182.0543
202.0290
214.0248
217.4237
212.1214
198.0903
175.4762
144.7234
106.2696
60.8716
9.3627
-47.5069
-105.1888
-162.7246
-219.1073
-273.3369
-324.5940
-372.2467
-415.5032
-453.7525
-486.3488
-513.0559
-533.4154
-547.1983
-554.5712
-555.6730
-550.9689
-540.7854
-525.7405
-506.2925
-483.2193
-457.3749
-429.6761
-400.8311
-372.0206
-343.8279
-316.8085
-291.4277
-268.0396
-246.8805
-227.9294
-211.3808
-197.1722
-185.1092
-175.0875
-165.7878
-156.5989
-147.6597
-138.4633
-128.8152
-118.4655
-107.2890
-95.3762
-82.4840
-68.5220
-53.5319
-37.4027
-22.3566
-8.5601
4.4033
16.3183
27.1365
36.9688
45.7041
53.5578
60.3562
66.1271
70.8983
74.7392
78.8235
83.1025
87.5137
92.0849
96.8994
101.7768
106.8558
112.0322
117.4104
122.9833
128.6537
134.4424
140.2245
146.1249
151.9908
157.7737
163.3416
168.8057
174.0963
179.1581
184.1230
188.9770
193.8869
198.6165
203.3811
208.0695
212.7861
217.5723
222.6644
227.8887
233.2453
238.7965
244.3689
249.8235
255.1256
260.5252
265.7445
270.8669
275.7882
280.3972
284.5691
288.3801
291.8858
295.0932
297.9814
300.6894
303.1059
305.1339
306.7940
307.9892
308.8374
309.3040
309.2153
308.6824
307.6706
306.1314
304.1549
301.7412
298.9250
295.6229
292.0989
288.4641
284.5935
280.7231
277.0335
273.4484
269.9261
266.4319
262.9657
259.3956
255.9160
252.5965
249.1939
245.6249
241.9798
238.0711
233.7807
229.1851
224.3466
219.3488
214.0456
208.6594
202.2457
194.8809
186.7802
177.9576
168.4686
158.5702
148.4151
138.0172
127.4460
116.6598
105.8391
94.8382
85.2750
77.0593
69.9620
64.0941
59.3029
55.3314
52.0060
49.2017
46.8005
44.8440
43.3183
42.2998
40.8858
39.2707
37.5794
35.6662
33.7255
31.8545
30.2686
29.0509
28.2641
27.9150
27.9690
28.3636
29.2445
30.2924
31.4448
32.8543
34.2780
35.7784
37.2999
38.9813
40.6631
42.4076
44.1315
45.9183
47.7886
49.9439
52.4676
55.3110
58.5088
62.0680
65.9122
69.6872
73.6291
77.5783
81.6250
85.5261
89.2052
92.4541
95.2241
97.3346
98.9592
99.9036
100.2233
100.0779
99.3565
98.2394
96.7199
95.0965
93.2163
91.4059
89.6652
88.3207
87.3097
86.7573
86.6496
87.0561
87.9212
89.0643
90.4577
91.9208
93.6619
95.6047
97.7283
99.7411
101.4416
102.8091
103.7949
104.3920
104.6561
104.6566
104.4004
104.1653
103.7707
103.0083
101.8712
100.4149
98.9866
97.6559
96.4226
95.2173
94.0054
92.8423
91.6726
90.2045
88.6464
87.0607
85.5448
84.1819
82.7845
81.2833
79.8308
78.4967
77.3851
76.4127
75.7460
75.3018
75.0384
74.9767
75.0611
75.1110
75.1333
75.0865
74.7205
73.9728
72.6489
70.8045
68.2659
65.2969
61.8560
58.0890
53.9889
49.9237
45.9352
42.1761
38.8547
36.0128
33.8239
32.1769
31.2593
30.8697
30.9734
30.8621
30.4941
29.4389
27.6547
25.0166
21.3162
16.5119
10.6245
3.7374
-4.3856
-13.6056
-23.8184
-33.8018
-43.5697
-52.6846
-61.0284
-68.5386
-74.9931
-80.3848
-84.7693
-88.0911
-90.0724
-90.8034
-90.3745
-89.5495
-88.2521
-86.7947
-85.4204
-84.2126
-83.3240
-82.6434
-82.2821
-82.2678
-82.8158
-83.7941
-85.2374
-86.9028
-88.7693
-90.7814
-92.7446
-94.6105
-96.1914
-97.5845
-98.6788
-99.3563
-99.6307
-99.6133
-99.2762
-98.6333
-97.6708
-96.2080
-94.2173
-91.7124
-88.6796
-85.1118
-80.8910
-76.2117
-70.8933
-64.7552
-57.5127
-49.2145
-39.7494
-29.1521
-17.3672
-4.1862
10.2798
26.7667
45.3095
66.0121
88.7428
113.3486
139.4060
166.6512
194.5562
222.5379
249.8878
275.9393
300.0118
320.0845
335.2547
344.8764
348.3802
345.1412
334.8191
317.2402
292.5574
260.9927
222.9491
178.9266
129.7028
76.7570
21.2281
-35.9743
-93.8293
-151.2188
-207.0387
-260.2820
-310.2890
-356.1083
-396.7816
-431.8436
-460.7666
-483.1894
-499.1953
-507.1594
-507.3525
-500.2398
-486.5436
-467.0834
-442.2966
-413.2041
-380.9031
-346.1644
-309.9533
-273.0199
-235.8849
-202.1941
-172.2532
-146.0552
-123.4056
-104.0128
-87.8699
-74.5670
-63.7918
-55.0789
-48.2200
-43.0277
-39.3352
-35.5869
-31.6024
-27.4720
-23.3344
-19.2869
-15.4546
-11.9693
-8.8242
-6.3039
-4.2835
-2.8115
-1.8811
-1.2700
-0.9365
-0.7903
-0.6926
-0.6295
-0.5594
-0.4543
-0.3422
-0.2021
0.0561
0.5019
1.1979
1.9844
2.7778
3.5715
4.2402
4.7424
5.2448
5.7750
6.3679
7.1275
7.8595
8.5500
9.0948
9.7438
10.5249
11.3825
12.5597
14.0634
15.8102
17.9392
20.2487
22.7182
25.3891
28.1157
31.0229
33.8678
36.5877
39.2523
41.3822
43.2205
44.6145
45.3281
45.6667
45.6027
45.1707
44.6416
44.0015
43.3545
42.6729
41.9220
41.5183
41.1495
40.9822
41.1205
41.4603
42.0640
43.0429
44.2440
45.5980
47.0702
48.8619
50.8203
52.7927
54.8485
56.9739
59.0785
61.1137
63.0170
64.6357
66.1572
67.5608
68.8742
69.9167
70.9108
71.9605
73.1144
74.3031
75.5543
76.9445
78.3278
80.1487
82.1641
84.5059
87.1048
90.0023
93.1637
96.4433
99.7923
103.3636
107.1642
111.0620
115.4459
119.4550
123.1029
126.3343
129.2254
131.7345
133.7716
135.4267
136.7554
137.6051
138.0242
138.0892
137.5153
136.8720
136.3121
135.7036
135.0257
134.4172
133.8852
133.4227
133.0018
132.6643
132.4032
132.3435
132.5964
133.0159
133.4007
133.8411
134.3024
134.5901
134.8152
134.9223
134.9184
134.7339
134.3132
133.5107
132.1456
130.3153
128.1308
125.5575
122.5466
119.2788
114.7471
109.0557
102.0518
93.9714
84.8564
74.6719
63.5430
51.3168
38.1323
24.0797
9.4021
-6.0671
-20.4184
-33.7418
-45.8986
-57.0068
-67.0317
-75.8691
-83.4219
-89.5163
-94.4024
-98.0454
-100.6329
-102.0608
-103.2803
-104.3610
-105.0181
-105.5016
-105.8115
-105.9062
-105.9731
-106.0609
-106.0723
-106.1116
-106.2342
-106.4125
-106.8755
-107.3524
-108.2252
-109.0980
-110.1167
-111.4411
-112.8002
-114.3329
-115.8935
-117.4124
-118.7787
-120.0964
-121.0391
-121.9541
-122.6955
-123.5134
-124.2550
-124.7744
-125.3842
-125.9454
-126.6455
-127.4082
-128.1918
-128.8366
-129.4398
-129.5639
-129.4450
-129.0553
-128.5407
-127.9498
-127.1507
-126.2404
-125.0387
-123.8161
-122.6006
-121.6073
-120.8781
-120.8434
-120.9962
-121.2950
-121.4133
-121.5039
-121.4209
-121.0326
-120.5193
-119.8185
-119.0138
-117.7507
-116.0225
-113.6277
-110.9900
-108.0121
-105.1106
-102.0287
-99.0164
-96.1083
-93.3600
-90.5771
-87.7805
-85.3103
-83.2152
-81.6064
-80.2893
-79.5001
-78.8152
-78.4359
-78.1609
-77.9555
-77.5905
-77.2186
-76.6039
-75.7322
-74.5066
-72.7949
-70.6945
-67.9830
-65.0704
-61.9078
-58.5440
-55.1386
-51.7403
-48.3977
-45.3260
-42.3170
-39.3706
-36.6326
-34.0407
-31.7683
-29.5932
-27.4461
-25.3685
-23.4092
-21.7139
-20.0464
-18.4556
-17.1148
-16.1145
-15.2532
-14.7184
-14.3019
-14.0938
-14.0178
-14.1294
-14.1440
-13.9504
-13.7569
-13.4803
-13.1483
-12.6983
-12.3596
-11.8683
-11.4744
-11.0945
-11.0203
-11.2519
-11.9280
-13.0140
-14.4405
-16.1796
-18.0856
-20.1028
-21.9674
-23.9224
-25.7804
-27.6664
-29.4205
-30.8902
-32.0058
-32.8577
-33.4528
-33.7356
-33.8519
-33.8433
-33.9044
-33.9379
-34.0549
-34.0749
-33.9700
-33.8445
-33.8233
-33.9689
-34.1565
-34.4969
-34.8167
-35.0326
-35.1167
-34.9440
-34.4937
-33.8144
-32.8854
-31.7551
-30.3056
-28.4326
-26.3098
-23.9095
-21.3843
-18.8733
-16.3485
-13.9073
-11.5426
-9.3448
-7.2791
-5.2623
-3.5095
-1.9583
-0.4976
0.7267
1.9301
2.9944
4.0723
5.1570
6.3387
7.7633
9.3196
10.9104
12.8830
15.0359
16.8067
18.3828
19.5073
20.3885
20.5057
20.0045
18.6560
16.2933
12.9652
8.7271
3.3569
-2.9233
-9.1620
-15.4079
-21.5499
-27.6712
-33.2441
-38.5117
-43.1962
-47.2281
-50.6422
-53.3690
-55.4363
-56.9135
-58.3354
-59.5770
-60.6452
-61.4844
-62.2267
-62.8442
-63.4063
-63.9062
-64.2674
-64.5594
-64.6988
-64.8385
-64.7909
-64.6463
-64.3839
-64.0592
-63.7695
-63.3411
-63.1282
-63.1933
-63.5920
-64.3243
-65.4804
-66.8103
-68.3836
-70.2626
-72.4405
-74.7922
-77.2900
-79.9825
-82.1753
-83.7293
-84.5614
-84.6576
-83.8860
-82.3716
-80.0588
-76.7741
-72.4548
-67.2331
-60.8518
-53.4430
-45.3956
-36.7025
-27.3014
-16.9839
-5.5138
7.3866
21.8076
37.7213
55.1974
74.4093
95.1487
117.6309
141.8629
167.7058
194.7567
222.5852
250.4759
277.5886
303.1524
326.4243
346.4529
362.3840
373.5579
379.1761
378.6134
371.4116
357.2789
336.1669
308.0962
273.4698
232.7320
186.5981
136.0820
82.1698
29.5906
-20.4957
-66.9989
-108.9329
-145.2145
-175.1976
-198.0838
-213.2134
-219.9473
-218.0218
-207.3535
-187.8729
-167.3023
-146.2042
-124.9467
-104.0574
-84.1059
-65.5436
-48.6343
-33.9961
-21.9970
-13.0399
-7.4163
-5.4597
-3.4825
-0.5889
3.0405
7.5586
13.0972
19.8926
27.6876
36.7185
46.7214
57.7448
69.6569
82.3396
95.6955
108.1485
119.7887
130.2967
139.5960
147.3465
153.8121
158.7218
162.2284
164.4709
165.5604
165.7329
165.0372
164.2369
163.3740
162.7816
162.6542
163.1584
163.9958
165.3884
167.3503
169.6243
172.2592
174.9564
177.7227
180.4540
183.0393
185.3395
186.9034
187.8420
188.3150
188.2323
187.5034
186.3507
184.8019
183.0236
181.0367
179.0149
177.0067
175.0607
173.4200
171.9457
169.5822
166.4199
162.5421
157.8584
152.2439
145.6916
138.0835
129.2598
119.1026
107.5423
94.6207
80.2821
66.6377
53.5416
40.9662
28.8557
17.2172
6.2242
-3.9704
-13.2555
-21.4576
-28.4447
-34.2931
-38.9473
-43.4699
-47.8955
-52.0992
-55.9073
-59.2434
-62.3575
-65.2845
-67.9478
-70.3127
-72.6224
-74.7934
-76.5897
-78.1293
-79.1344
-79.7649
-80.2289
-80.7140
-80.9840
-81.2197
-81.5458
-82.1639
-82.7961
-83.4425
-84.3739
-85.3402
-86.5152
-87.8362
-89.1367
-89.9721
-90.7314
-91.0535
-91.0772
-90.6498
-89.9240
-89.0457
-87.9107
-86.7066
-85.4957
-84.3615
-83.4290
-83.1008
-83.0854
-83.5217
-84.2429
-85.2006
-86.3320
-87.5193
-88.7693
-89.9710
-91.0132
-91.7779
-92.1123
-91.8844
-91.0388
-89.7975
-88.0704
-85.9547
-83.5336
-80.8420
-77.9423
-74.9803
-72.1645
-69.4808
-67.2904
-65.4614
-64.1535
-63.2208
-62.7814
-62.8006
-63.2437
-64.0272
-65.2416
-66.5326
-67.6920
-68.8307
-69.5114
-70.0117
-70.2415
-70.1659
-69.7156
-68.9947
-67.9962
-66.8453
-65.2501
-63.7454
-62.3382
-60.9660
-59.8927
-58.9862
-58.2744
-57.7573
-57.6432
-57.8141
-58.2144
-58.8858
-59.9532
-61.0487
-62.1305
-63.2125
-64.1281
-64.7662
-64.9739
-64.8902
-64.2651
-63.1055
-61.6406
-59.7384
-57.5309
-55.3722
-53.2971
-51.3194
-49.6892
-48.5176
-48.1309
-48.3000
-49.0805
-50.5903
-52.3990
-54.4788
-56.7948
-58.8681
-60.8721
-62.7792
-64.3670
-65.6356
-66.4045
-66.8055
-67.0192
-66.7540
-66.6209
-66.7728
-67.0013
-67.5842
-68.2646
-69.0771
-70.0773
-71.3694
-73.0715
-75.1279
-77.3652
-80.0401
-82.5694
-84.7517
-86.6843
-88.3948
-90.0708
-91.6498
-92.8193
-93.4821
-93.5062
-92.9472
-91.8259
-90.1214
-87.9867
-85.6438
-83.2594
-80.6670
-77.7900
-74.7882
-72.2172
-70.1603
-68.6383
-67.5957
-67.0672
-67.0041
-67.5246
-68.5106
-69.7815
-71.5179
-73.6643
-76.1372
-78.6658
-81.0767
-83.3349
-85.6350
-87.8103
-89.7775
-91.4879
-92.7333
-93.5691
-93.8426
-93.7830
-93.2514
-92.4005
-91.2304
-89.8729
-88.1059
-86.2211
-84.3017
-82.3340
-80.7761
-79.6559
-79.0359
-78.6800
-78.6993
-78.8299
-79.2315
-79.6750
-80.1811
-80.5277
-80.8051
-81.0201
-80.8812
-80.4091
-79.5413
-78.3196
-76.7092
-74.7378
-72.3916
-69.7540
-66.9012
-63.8194
-60.4879
-56.9412
-53.0753
-48.8345
-44.2120
-39.2146
-33.7383
-28.0468
-21.8347
-15.1784
-7.8624
0.0714
8.8175
18.6051
29.3440
41.1938
54.2239
68.5595
84.0407
101.0287
119.3152
139.1084
160.1723
182.4929
205.8898
230.1616
255.1970
280.6629
306.1424
331.2121
355.5733
378.4969
399.3369
417.2184
431.6623
441.8699
447.2302
447.0764
440.9155
428.3377
409.1904
383.3624
350.9578
314.0044
273.6273
230.9514
186.9421
142.9256
100.1799
59.8437
22.9379
-9.4403
-36.3603
-57.0374
-70.7840
-80.2253
-86.0417
-88.6082
-88.4249
-86.0265
-82.2115
-77.4522
-72.2139
-67.0661
-62.5364
-58.9652
-56.8524
-55.0315
-53.2593
-51.6331
-50.1112
-48.7422
-47.1512
-45.4074
-43.5944
-41.6287
-39.4688
-37.2603
-34.9964
-32.9896
-31.3649
-30.1708
-29.3589
-28.9151
-29.1520
-29.9307
-31.1748
-32.8495
-34.9550
-37.3661
-39.9927
-42.4596
-44.6073
-46.3870
-47.8265
-48.8842
-49.3309
-49.2569
-48.5234
-47.2968
-45.6538
-43.5039
-40.9305
-37.9683
-34.8813
-31.5166
-27.8117
-23.7458
-19.6314
-15.3714
-11.3267
-7.2543
-3.0779
0.9317
4.8024
8.4785
12.2030
15.7817
19.0547
21.9317
24.6072
26.9771
29.3747
31.5082
33.3292
35.0250
36.5194
37.7081
38.5703
39.2657
39.8708
40.4410
41.1292
41.9284
42.7067
43.7765
45.1032
46.7076
48.7216
51.2147
54.1243
57.3255
60.7975
64.8318
69.0883
73.6225
78.4204
83.2253
88.2175
93.1818
98.0836
103.0061
107.9563
112.9690
118.2523
123.1953
128.1452
133.0672
138.0308
143.0151
147.9091
153.0252
158.3356
163.7641
169.2272
174.6554
179.8336
184.9423
189.8148
194.4233
198.6776
202.7790
206.6929
210.0997
213.0689
215.5450
217.5558
219.2193
220.6604
222.0251
223.2926
224.5599
225.8480
227.0319
228.0421
229.0938
229.9303
230.6139
231.0960
231.4670
231.5045
231.2642
230.7530
229.9362
228.8555
227.5941
226.3118
224.9114
222.9207
220.3327
217.2099
213.3162
208.7419
203.2439
196.8708
189.5672
181.3121
171.9180
161.3503
149.6159
138.0342
126.6816
115.6483
105.0665
95.0540
85.8678
77.4594
69.8565
63.0243
57.0324
51.8390
47.5137
43.3480
39.1684
34.8985
30.5104
25.9765
21.1092
15.9085
10.3675
4.7223
-0.9022
-6.4086
-11.8942
-17.1785
-22.1295
-26.5944
-30.5594
-34.0313
-36.8436
-38.9615
-40.4057
-41.5098
-42.3222
-42.9541
-43.2944
-43.5653
-43.6487
-43.7738
-44.0031
-44.5449
-45.4757
-46.7676
-48.3929
-50.2265
-52.2894
-54.4911
-56.9221
-59.3461
-62.1452
-65.1318
-68.2573
-71.2093
-74.0571
-76.8077
-79.4194
-81.8368
-84.0458
-86.0882
-87.9431
-89.8327
-91.3682
-92.5218
-93.2518
-93.6346
-93.4827
-92.9211
-91.9706
-90.6452
-88.9447
-86.8901
-84.5023
-81.6908
-78.6293
-75.6720
-72.8745
-70.4658
-68.4947
-66.8500
-65.5525
-64.7203
-64.3048
-64.3615
-64.8280
-65.6833
-66.9415
-68.2274
-69.5620
-70.6466
-71.6409
-72.5657
-73.4490
-74.1030
-74.5973
-74.8347
-74.8083
-74.5943
-74.1859
-73.8886
-73.6677
-73.6135
-73.6356
-73.7758
-73.9022
-74.1257
-74.4813
-74.9479
-75.5187
-76.1658
-76.7783
-77.1894
-77.4546
-77.6365
-77.6795
-77.5697
-77.4044
-77.3502
-77.2821
-77.2556
-77.2639
-77.3207
-77.3915
-77.5386
-77.4705
-77.2009
-76.9105
-76.4465
-75.9270
-75.0671
-73.9781
-72.7641
-71.4875
-70.0929
-68.7260
-67.2481
-66.1590
-65.4865
-64.9668
-64.8430
-64.9413
-65.3313
-65.9574
-66.7224
-67.6748
-68.7662
-70.0380
-71.6293
-73.1303
-74.3257
-75.5420
-76.4943
-77.2174
-77.6975
-77.9206
-77.8520
-77.4223
-76.7981
-75.9031
-74.5983
-73.0782
-71.5234
-69.5865
-67.6289
-65.5670
-63.6649
-62.0543
-60.7563
-59.8610
-59.3129
-59.0981
-59.2652
-59.6268
-60.1202
-60.9331
-61.7181
-62.6976
-63.4756
-64.0453
-64.4483
-64.6429
-64.5806
-64.3237
-63.9696
-63.8794
-64.0530
-64.4210
-65.2682
-66.3583
-67.8998
-69.6358
-71.4203
-73.0797
-74.5169
-75.7458
-76.6759
-76.8908
-76.4042
-75.3204
-73.4379
-70.8956
-67.7145
-64.0957
-60.2061
-56.2609
-52.4615
-49.0162
-46.0709
-43.8060
-42.2912
-41.4776
-41.4418
-42.2671
-43.8006
-45.9730
-48.8329
-52.1371
-55.8441
-59.3912
-62.5356
-65.4021
-68.0186
-70.3711
-72.4875
-74.3747
-76.1923
-77.9613
-79.6122
-81.3324
-82.9832
-84.8353
-87.0832
-89.5949
-92.1899
-94.8334
-97.4561
-99.8425
-101.9373
-103.8028
-105.2377
-106.3392
-107.2323
-107.9101
-108.2128
-108.2169
-108.0056
-107.7039
-107.2564
-106.6908
-106.0000
-105.1287
-104.2365
-103.2192
-102.0143
-100.7538
-99.5627
-98.3923
-97.2636
-96.0167
-94.7350
-93.6547
-92.7687
-92.0701
-91.6146
-91.3187
-91.1824
-91.0878
-90.9444
-90.6899
-90.3450
-90.1042
-90.0369
-89.8168
-89.5411
-89.1403
-88.6144
-88.0467
-87.5276
-87.0223
-86.5239
-86.0949
-85.6796
-84.8615
-83.5155
-81.7112
-79.2331
-76.1855
-72.3114
-67.4512
-61.3130
-53.8832
-45.1963
-35.0787
-23.2736
-10.0587
4.6286
20.7950
38.4130
57.6977
78.4825
100.7327
124.1288
148.6222
174.1573
200.4287
226.8946
253.1870
278.8058
303.1609
325.6480
345.2810
361.4419
373.2487
380.1528
381.5153
376.6766
365.2963
347.0758
322.0568
290.2879
252.1649
208.1184
161.8150
114.2062
66.6392
20.4542
-23.3557
-63.4017
-98.7391
-128.3960
-151.5180
-167.2301
-175.1506
-174.8000
-171.3800
-165.2445
-156.9770
-147.3969
-136.8375
-126.1461
-115.7740
-106.0755
-97.6754
-91.2127
-87.0069
-85.5023
-84.3171
-83.5345
-83.0505
-82.7886
-82.8460
-83.0422
-83.4327
-83.9967
-84.6925
-85.4022
-86.0770
-86.6614
-85.9748
-83.9062
-80.6014
-76.0465
-70.0817
-62.6863
-53.8046
-43.5200
-31.7840
-18.5895
-3.9504
12.1263
27.0851
40.9814
53.8571
65.8301
76.8310
86.8320
95.7776
103.6191
110.5718
116.5872
121.7277
125.9864
130.7869
135.9069
141.3604
147.0154
152.8233
158.5758
164.3700
170.2964
175.9381
181.2814
186.3053
190.9682
195.0758
198.7459
201.9648
204.8019
207.1599
209.2958
211.1333
212.5264
213.7808
214.9242
215.7413
216.2878
216.6469
216.7491
216.6571
216.2804
215.8414
215.2984
214.6374
214.0668
213.3714
212.5789
211.9393
211.2929
210.5286
209.4102
207.8892
206.0281
203.6185
200.5771
196.8691
192.1613
186.6134
180.0239
172.2471
163.5120
154.0202
144.4521
134.7870
124.8997
115.1723
105.4868
96.0305
87.1577
78.7295
71.0445
64.1930
58.0638
52.5598
47.2851
42.1425
37.4098
32.5661
27.8545
23.0388
18.1331
13.1997
8.1136
2.8750
-2.4608
-7.8727
-13.2290
-18.4115
-23.6008
-28.5191
-33.1943
-37.3831
-41.3496
-44.9270
-48.2404
-51.2134
-53.8668
-56.0894
-58.0897
-59.7704
-61.0551
-61.9855
-62.5616
-63.0472
-63.5188
-64.1986
-64.8990
-65.7035
-66.5772
-67.7702
-69.2965
-71.2045
-73.5915
-76.4922
-79.9275
-83.6543
-87.1588
-90.2880
-93.0283
-95.4905
-97.7096
-99.5327
-100.7306
-101.3937
-101.4663
-100.9693
-99.9235
-98.4053
-96.7828
-95.3060
-93.9887
-92.7477
-91.5690
-90.3832
-89.3431
-88.4625
-87.7484
-86.9925
-86.1809
-85.3552
-84.5155
-83.4256
-82.1897
-80.8217
-79.3980
-78.0991
-76.8209
-75.3689
-73.7500
-72.1935
-70.7480
-69.3578
-67.9605
-66.5561
-65.0613
-63.4135
-61.4947
-59.2424
-56.8510
-54.5428
-52.3942
-50.3079
-48.3464
-46.6070
-45.0340
-43.6415
-42.5821
-41.9253
-41.7336
-42.0070
-42.4261
-42.8659
-43.2430
-43.5574
-43.7049
-43.6579
-43.5551
-43.4452
-43.1823
-42.8221
-42.4339
-41.9344
-41.6084
-41.5252
-41.6085
-41.8722
-42.3441
-42.9546
-43.5998
-44.4391
-45.4033
-46.4021
-47.0187
-47.3227
-47.1126
-46.4509
-45.3793
-43.9603
-42.2426
-40.2330
-37.9940
-35.4007
-32.5294
-29.4636
-26.8628
-24.6993
-23.2093
-22.1774
-21.6801
-21.6826
-21.9418
-22.5273
-23.4251
-24.4893
-25.8312
-27.2909
-28.6463
-29.8835
-30.8774
-31.8780
-32.8369
-33.6914
-34.5943
-35.6012
-36.6079
-37.7463
-38.9610
-40.2033
-41.4593
-42.7359
-44.0957
-45.2956
-46.2869
-47.1601
-48.1233
-48.8710
-49.5422
-50.1229
-50.4743
-50.7769
-50.9265
-50.9995
-50.9127
-50.8534
-50.8912
-50.9912
-50.9731
-51.0520
-51.1168
-51.1814
-51.3708
-51.6712
-52.0269
-52.3477
-52.6267
-52.7319
-52.6771
-52.4555
-51.8449
-50.9910
-50.0049
-48.7270
-47.3795
-45.8582
-44.3159
-42.6970
-41.0362
-39.4030
-37.6724
-35.8653
-34.2316
-32.6740
-31.1024
-29.6834
-28.0350
-26.3170
-24.5225
-22.8527
-21.2869
-19.7835
-18.5090
-17.3454
-16.3066
-15.0872
-13.7425
-12.3559
-10.9762
-9.4781
-7.6119
-5.1690
-2.1149
1.6131
6.1328
11.4167
17.5966
24.3461
31.7417
40.0818
49.3319
59.6516
70.9785
83.4166
97.0980
111.9532
128.1003
145.6017
164.4921
184.9106
206.9542
230.4286
255.1948
273.7390
285.8250
291.1890
289.7407
281.5079
266.3169
244.1052
214.7341
178.0784
133.9854
82.5522
23.8832
-27.5009
-71.3848
-107.9422
-137.4299
-160.2369
-176.3840
-186.2184
-189.9901
-187.7547
-179.6302
-165.9916
-146.9709
-129.8458
-114.9636
-102.1021
-91.1501
-81.5798
-73.5302
-66.6957
-60.7916
-55.7484
-51.4202
-47.5642
-44.0343
-40.7612
-37.5781
-34.4088
-31.3921
-28.7710
-26.4067
-24.2296
-22.2816
-20.5765
-19.2739
-18.2212
-17.4877
-17.1220
-16.9507
-17.1889
-17.3852
-17.5675
-17.6454
-17.7231
-17.7520
-17.6280
-17.1705
-16.4489
-15.4909
-14.1440
-12.6093
-10.6231
-8.5464
-6.2959
-3.9480
-1.4957
0.9220
3.3051
5.5426
7.5373
9.4487
11.1451
12.7236
13.9759
14.9645
15.7936
16.3658
16.6466
16.9207
17.1879
17.5943
18.2369
19.0464
20.0713
21.2770
22.8717
24.9388
27.2353
29.8792
32.9815
36.2438
39.4993
42.6370
45.6637
48.5864
51.4329
54.2865
57.0709
59.7721
62.5637
65.4736
68.3906
71.4050
74.7043
78.3301
82.1367
86.0962
90.0698
94.1270
98.2190
102.2139
106.0632
109.8085
113.3595
116.8829
120.2607
123.4581
126.6348
129.5478
132.4054
134.9785
137.2045
139.2431
141.1014
142.5571
143.8741
144.8787
145.8002
146.7218
147.5186
148.5031
149.6544
151.1878
153.2492
155.7690
158.8238
162.6495
167.0310
172.0446
177.3500
182.9125
188.8711
195.1145
201.5317
207.9282
214.1999
220.3398
226.1951
231.5992
236.6632
241.2343
245.4722
249.2659
252.3722
254.8537
256.6062
257.6991
257.3616
255.6770
252.6246
248.3223
242.8327
236.3640
228.8191
220.1842
210.7090
200.1855
188.6274
175.9930
163.9005
152.0303
140.7297
129.9085
119.3444
109.0026
98.8832
89.2084
80.0060
71.5954
64.0878
57.6358
51.2882
45.4754
39.6836
33.9962
28.5728
23.2120
18.1569
13.2270
8.2209
2.9579
-2.3743
-8.0259
-13.6703
-19.4743
-25.0074
-30.2972
-35.2953
-39.7793
-43.9159
-47.5662
-51.2443
-54.8804
-58.7387
-62.5968
-66.5798
-70.7154
-75.2051
-79.9654
-85.1562
-90.8884
-97.0442
-103.7067
-109.7997
-115.3856
-120.3949
-124.8139
-128.8299
-132.4152
-135.4518
-138.0646
-140.0384
-141.3107
-141.8884
-141.9243
-141.7100
-141.2943
-140.6492
-140.0179
-139.2128
-138.2757
-137.4843
-136.7552
-136.3107
-136.0814
-136.3658
-136.7682
-137.6288
-138.6072
-139.8217
-141.0638
-142.4239
-143.7838
-144.8311
-145.6282
-146.0989
-146.4305
-146.2759
-145.9615
-145.3344
-144.8252
-144.2743
-143.6885
-143.0193
-142.3291
-141.7290
-141.2747
-140.9036
-140.5532
-140.3971
-140.3867
-140.4318
-140.2476
-139.8896
-139.2746
-138.4026
-137.2318
-135.8039
-134.0982
-132.1076
-129.9085
-127.4385
-124.6421
-121.6371
-118.6529
-115.6130
-112.5452
-109.5051
-106.7705
-104.3968
-102.2591
-100.6283
-99.2751
-98.3177
-97.8185
-97.6317
-97.5836
-97.8896
-98.7928
-100.2027
-101.8001
-103.3626
-104.9181
-106.1819
-107.3899
-108.3409
-109.1113
-109.8260
-110.6725
-111.6301
-112.4695
-113.3365
-114.3354
-115.6190
-117.2774
-119.3802
-121.5940
-124.0855
-126.5977
-129.0751
-131.2469
-132.7032
-133.6942
-134.1018
-133.9329
-133.2639
-132.0670
-130.1756
-127.9577
-125.3370
-122.6328
-119.9424
-117.4603
-115.5683
-113.9749
-112.6661
-111.6419
-110.6802
-109.6767
-108.8328
-108.0791
-107.2629
-106.0507
-104.4635
-102.3692
-99.8165
-96.8262
-93.5094
-89.7968
-85.8896
-81.9198
-77.8874
-73.6120
-69.3920
-65.3246
-61.1531
-56.9606
-52.4625
-47.7838
-43.5078
-39.7108
-36.3652
-33.5195
-31.1877
-29.5502
-28.4681
-28.0388
-28.4914
-29.8953
-32.4449
-36.0778
-39.4467
-42.5865
-45.3372
-47.5740
-49.2621
-50.2280
-50.6451
-50.3886
-49.5487
-48.1323
-46.0562
-43.4661
-41.1051
-38.9315
-37.0704
-35.5703
-34.4035
-33.6464
-33.0559
-32.7430
-32.6038
-32.4645
-32.4293
-32.3176
-32.1782
-31.9692
-31.7324
-31.3913
-30.8975
-30.3272
-29.7846
-29.2559
-28.7201
-28.3371
-28.0235
-27.9459
-27.7434
-27.5268
-27.1366
-26.6630
-26.1408
-25.5074
-24.6796
-23.7197
-22.3848
-20.5915
-18.3398
-15.4284
-12.2114
-8.4249
-4.2147
0.5302
5.7960
11.7216
18.3763
25.9270
34.2901
43.5492
53.8499
65.2271
77.9515
91.9121
107.4143
124.3888
142.9606
163.1088
184.7848
207.9122
232.2966
257.8686
284.3016
311.2069
338.1192
364.5802
389.8189
413.3215
434.3103
451.9241
465.3435
473.9990
477.1129
473.9560
464.1324
447.4546
423.7978
393.2659
356.1507
312.9800
264.4552
211.4512
158.1764
105.6585
55.3282
8.4492
-33.8881
-70.7184
-101.2153
-124.6637
-140.4384
-148.2270
-147.8003
-138.8735
-127.8566
-115.2423
-101.6281
-87.6041
-73.6288
-60.2506
-47.9489
-37.0221
-27.8801
-20.8422
-16.1515
-14.3497
-12.4993
-10.5101
-8.4652
-6.3093
-4.1742
-2.0877
0.1030
2.1062
4.0190
5.7166
7.1017
8.3410
9.4136
10.1945
10.7948
11.1591
11.2525
11.1861
10.8628
10.4979
9.9662
9.4970
10.2293
12.1351
15.2353
19.5092
25.1233
32.0568
40.3098
49.8335
60.6490
72.8185
86.2798
100.9076
114.5772
127.1911
138.7356
149.4537
158.8939
167.1536
174.5939
181.1729
186.8909
191.6297
195.5351
198.5029
201.5749
204.7719
208.0244
210.9505
214.0016
216.9624
219.3467
221.2241
222.5736
223.2912
223.3212
222.8373
221.8604
220.4736
218.9271
217.5820
216.1743
214.8916
214.0533
213.5899
213.4182
213.5450
213.9149
214.4583
214.9601
215.3576
215.2828
214.5413
213.0568
210.8569
207.6569
203.4986
198.5000
191.6957
183.2039
173.0037
161.5049
148.7560
135.0070
120.3275
104.9742
88.9335
72.4621
55.4351
37.8525
21.8254
7.3051
-5.6874
-17.4785
-27.9920
-37.3250
-45.4566
-52.5049
-58.5950
-63.7130
-67.6851
-70.4907
-73.2130
-75.9978
-78.8314
-81.6094
-84.4014
-87.0893
-89.8537
-92.5764
-94.9937
-97.2166
-99.2729
-101.2251
-102.9413
-104.1575
-104.9433
-105.2430
-105.1956
-104.7733
-103.7329
-102.4219
-101.1734
-99.8902
-98.7530
-97.6367
-96.7704
-96.1682
-95.7674
-95.5611
-95.3896
-95.3641
-95.6234
-95.9799
-96.1352
-96.2142
-95.9807
-95.6293
-94.9238
-94.1351
-93.2006
-92.2107
-91.1861
-90.1338
-88.9844
-87.5504
-86.1234
-84.5993
-83.0476
-81.5375
-80.1179
-78.6081
-76.9942
-75.3109
-73.5375
-71.7295
-69.9285
-68.3081
-66.6254
-65.0330
-63.4825
-61.7445
-59.9441
-58.1438
-56.4965
-54.8839
-53.3340
-51.8119
-50.2900
-48.8376
-47.6908
-46.6831
-46.0505
-45.6610
-45.5773
-45.7297
-46.0837
-46.6461
-47.4725
-48.5282
-49.8270
-51.1885
-52.2862
-53.2521
-53.8015
-54.3231
-54.6019
-54.6516
-54.4862
-54.3347
-54.1418
-53.8031
-53.3534
-52.8900
-52.7739
-52.9496
-53.5977
-54.4542
-55.5817
-56.9941
-58.6010
-60.2219
-61.8569
-63.6100
-65.4536
-67.3251
-68.9537
-70.3601
-71.3570
-72.0902
-72.6846
-73.1541
-73.5613
-73.7186
-73.6469
-73.4156
-72.9900
-72.5507
-72.2990
-72.1932
-72.4488
-73.0100
-73.7034
-74.6330
-75.6044
-76.9926
-78.8254
-80.9292
-83.3388
-85.6998
-87.8805
-89.8321
-91.9089
-94.0831
-96.5074
-98.9319
-101.7107
-104.5383
-107.2549
-110.0272
-112.8345
-116.0655
-119.6647
-123.6391
-127.0511
-129.9216
-132.0076
-133.5174
-134.1801
-134.1138
-133.5615
-132.3636
-130.6103
-127.9475
-124.6459
-120.8723
-117.1822
-113.6103
-110.4414
-107.6615
-105.3471
-103.4634
-101.8716
-100.6688
-99.6815
-99.2360
-98.9018
-98.5400
-98.0882
-97.3518
-96.2127
-94.5947
-92.5742
-90.2343
-87.5266
-84.5204
-81.4659
-78.1684
-74.9198
-71.8241
-68.7356
-65.9806
-63.5660
-61.4919
-59.6680
-58.0666
-56.7986
-55.5864
-54.1175
-48.9752
-40.2913
-28.1494
-13.0840
4.6964
24.8031
46.7359
69.9185
93.9065
118.2276
142.0763
164.6609
178.6203
183.8780
180.4342
168.5666
148.7127
121.4279
87.4000
47.5871
2.7184
-46.2963
-98.4224
-152.5070
-204.1404
-252.5102
-296.7690
-336.1739
-370.2040
-398.4358
-420.6330
-436.7888
-446.7503
-450.6357
-448.7505
-441.4836
-429.3557
-412.9851
-393.1702
-370.6611
-346.1939
-320.6297
-294.5379
-268.5645
-243.3273
-219.2293
-196.5205
-175.5062
-156.2562
-138.8188
-123.2220
-109.2573
-97.0012
-86.1829
-76.6356
-68.1997
-60.7918
-54.2522
-48.5044
-43.4167
-38.9264
-34.9919
-31.4952
-28.6932
-26.1900
-24.0759
-22.4205
-21.1402
-19.9853
-19.0944
-18.4400
-17.8205
-17.3401
-16.8600
-16.3593
-15.7061
-15.0879
-14.2893
-13.3175
-12.2833
-11.4439
-10.6048
-9.7242
-9.0522
-8.4013
-7.8827
-7.4684
-7.1308
-6.8491
-6.8245
-7.0155
-7.2137
-7.1900
-7.1665
-7.1085
-6.8634
-6.4588
-5.7836
-4.8934
-3.6771
-2.0930
0.0116
2.5465
5.3450
8.4210
11.9898
16.0028
20.2308
24.6043
29.0886
33.6352
38.2301
42.7552
47.1203
51.5685
56.1623
60.6724
65.0294
69.1987
73.4718
77.8002
82.1075
86.4353
90.5128
94.4998
98.3684
101.8686
105.0352
108.0626
110.9439
113.7624
116.3445
118.7735
121.0841
123.3458
125.6559
127.8684
129.9833
132.1327
134.2957
136.2431
137.9749
139.4772
140.8126
142.0365
143.2601
144.5320
146.1438
148.1582
150.7555
153.8595
157.3173
161.3443
165.7875
170.6472
175.8398
181.6780
187.8700
194.3047
200.6489
206.9441
212.9264
218.6307
224.2791
229.7674
235.3040
240.7431
246.2096
250.8216
254.9194
258.5238
261.9195
265.0649
268.2585
271.4727
274.5476
277.4000
279.9256
282.1523
283.9759
285.8685
287.6081
289.0556
289.9125
290.1302
289.3753
287.5784
284.8228
281.1919
276.7342
271.5400
265.5677
258.8382
251.3166
243.3155
234.8070
225.8816
216.7058
207.4949
198.2420
189.1971
180.3879
171.7797
163.4629
155.0345
146.6336
138.0657
129.5946
121.1578
112.8318
104.5958
96.3732
87.8516
79.0103
69.9046
60.5695
51.9006
43.8286
36.4298
29.6903
23.5686
17.9742
12.6503
7.9440
3.9041
0.5859
-2.1076
-4.1973
-6.2179
-7.9681
-9.5451
-11.1711
-12.7003
-14.0631
-15.1278
-16.3664
-17.5291
-18.8310
-20.1195
-21.3944
-22.5864
-23.9316
-25.3883
-26.7065
-28.0320
-29.4413
-30.8162
-31.9624
-33.1576
-34.1588
-35.0631
-35.9887
-36.9494
-37.8827
-38.6428
-39.4867
-40.3518
-41.1687
-41.9999
-42.7899
-43.5386
-44.3432
-45.2386
-46.0232
-46.7180
-47.2882
-47.9839
-48.5549
-48.8972
-49.0941
-49.2914
-49.4891
-49.5761
-49.6636
-49.5848
-49.5481
-49.4285
-49.3301
-49.0794
-48.7389
-48.5377
-48.4132
-48.2337
-48.0754
-47.8898
-47.4615
-47.0546
-46.4119
-45.7280
-44.9195
-44.0351
-43.1025
-41.9898
-40.6901
-39.1546
-37.4044
-35.6129
-33.8982
-32.0798
-30.3660
-28.6457
-26.8356
-25.0676
-23.3556
-21.6857
-20.1482
-18.7153
-17.3523
-16.0661
-14.7596
-13.4951
-12.1756
-10.9260
-9.8851
-8.8100
-7.8881
-7.0084
-6.2054
-5.6460
-5.4135
-5.3064
-5.4011
-5.5936
-6.0295
-6.5562
-7.0625
-7.6873
-8.1390
-8.5911
-8.8632
-8.8996
-8.5129
-7.7585
-6.7130
-5.5221
-3.9150
-2.0098
0.0895
2.3479
4.7031
7.2037
9.7247
12.2243
14.5637
16.6319
18.4287
20.0723
21.1945
21.9135
22.1946
22.0237
21.4080
20.2431
18.6195
16.7176
14.5721
12.3012
10.0992
7.8204
5.7494
3.9696
2.5226
1.5335
0.8495
0.6233
0.7508
1.0375
1.6085
2.3873
3.2004
4.1935
5.3806
6.4977
7.5519
8.5083
9.4851
10.3919
11.2080
11.9680
12.4706
12.6463
12.5924
12.2115
11.3302
10.0803
8.7466
7.2527
5.6402
4.0064
2.5388
1.3415
0.5326
0.2926
0.6146
1.7001
3.5558
6.2653
9.5089
13.3701
17.8420
22.8063
28.0619
33.6016
39.3215
45.0408
50.6207
55.7696
60.6124
64.9685
68.7548
71.8739
74.1730
75.6591
76.4156
76.2896
75.4478
73.5291
70.7280
67.1347
62.7006
57.5785
52.0392
46.2078
40.2925
34.2795
28.3077
22.4603
16.5986
11.7780
7.7694
4.6978
2.5076
1.0114
0.0354
-0.6076
-1.1123
-1.2981
-1.4913
-1.6017
-1.6710
-2.3310
-3.4082
-4.9720
-6.9183
-9.0665
-11.2846
-13.3366
-15.1252
-16.7407
-17.9539
-18.9176
-19.4305
-19.4855
-19.1660
-18.4790
-17.5356
-16.4746
-15.3377
-14.3194
-13.4822
-12.8816
-12.5037
-12.3416
-12.4647
-12.8800
-11.5389
-8.3094
-2.7470
5.5718
16.7234
31.0550
48.9000
70.5015
95.9219
125.4876
158.9973
196.4926
233.8137
270.4191
305.2323
337.2395
365.6489
389.6342
408.1328
420.2213
425.2468
422.4036
411.5878
392.3131
366.5935
334.7415
297.4167
255.2233
208.9184
159.0435
106.6958
52.8060
-1.8759
-56.4264
-110.3177
-162.4387
-212.3518
-259.2863
-302.6448
-341.6358
-375.6065
-401.9040
-420.5910
-431.5631
-434.8761
-430.7936
-419.4895
-401.8039
-377.9452
-348.9689
-315.5973
-278.7608
-239.7096
-203.2423
-169.6018
-139.1284
-112.0583
-88.5582
-68.8502
-52.6774
-40.1856
-30.9930
-25.0022
-21.9702
-21.2859
-20.7410
-20.3563
-20.1319
-19.8801
-19.5524
-18.8085
-17.7317
-16.2596
-14.4893
-12.3168
-9.8878
-7.2648
-4.7047
-2.1660
0.3097
2.5559
4.5029
5.8800
6.7150
7.0287
7.1197
6.8214
6.3907
5.8344
5.3958
5.0887
4.8922
4.9384
5.3382
6.0848
7.2615
8.7503
10.2872
11.9904
13.6653
15.2217
16.6387
17.9373
19.2354
20.4776
21.6220
22.7035
23.5485
24.3097
24.9732
25.6363
26.4032
27.3710
29.4842
32.6455
36.8759
42.0781
48.2729
55.5437
63.9321
73.3131
83.7562
95.1572
107.4467
120.4719
132.4064
143.2225
152.8992
161.5199
169.1542
175.6838
181.2270
185.8878
189.6523
192.4304
194.2080
195.1658
196.1996
197.3927
198.6826
199.9930
201.1988
202.3626
203.3662
204.0917
204.5182
204.8749
205.1062
205.1357
204.8662
204.2352
203.1595
201.8194
200.2290
198.4090
196.3734
194.2333
192.1206
189.8339
187.4566
184.9261
182.4439
179.9266
177.4923
174.9118
172.1087
169.0067
164.9737
160.0446
154.0527
147.0673
139.0955
130.1929
120.1787
109.2129
97.3023
84.5996
71.2717
57.3115
44.0732
31.3415
19.1720
7.5577
-3.5569
-14.1509
-24.1897
-33.7080
-42.6919
-51.1136
-58.9939
-66.2356
-73.4845
-80.5046
-87.1500
-93.4484
-99.2263
-104.4420
-109.1163
-113.1659
-116.6532
-119.6131
-122.0107
-123.9086
-125.2998
-126.2677
-127.2150
-128.0514
-128.9368
-129.9682
-131.1318
-132.4346
-133.8695
-135.4297
-137.1776
-139.0786
-141.1742
-143.4923
-145.4982
-147.3098
-148.8716
-150.1698
-151.1835
-151.9683
-152.7949
-153.7120
-154.7960
-155.9289
-157.1314
-158.2924
-159.7175
-161.1984
-162.7211
-164.2510
-165.7533
-167.3807
-168.4528
-169.0112
-169.0143
-168.6633
-167.9723
-167.2536
-166.3893
-165.6293
-165.1750
-164.9431
-164.9475
-165.0145
-165.5192
-166.3990
-167.6263
-168.9856
-170.4978
-171.6490
-172.6198
-173.2089
-173.1730
-172.6234
-171.5669
-170.0592
-168.2044
-166.0928
-163.6757
-161.2934
-158.8349
-156.7653
-154.8556
-153.2377
-151.9740
-151.0298
-150.4191
-149.9820
-149.6423
-149.1776
-148.7060
-147.9290
-146.9646
-145.6668
-144.3275
-142.9952
-141.4060
-139.8029
-137.9569
-136.1456
-134.2788
-132.4884
-130.6356
-128.8383
-126.9508
-124.7925
-122.2662
-119.1496
-116.0330
-112.5137
-109.0360
-105.5375
-102.1362
-98.8113
-95.7156
-92.7866
-90.1075
-87.9562
-86.1243
-84.7646
-83.6480
-82.9480
-82.3313
-81.6798
-81.0213
-80.3837
-79.6210
-78.7610
-77.8454
-76.7006
-75.5141
-74.1747
-72.5367
-70.4749
-68.2187
-65.7263
-62.9282
-59.8800
-56.7901
-53.7487
-50.7628
-47.9712
-45.2976
-42.9294
-40.9430
-39.5121
-38.4908
-37.9694
-37.8298
-37.9539
-38.1752
-38.2991
-38.3117
-37.9561
-37.2879
-36.3001
-34.8400
-32.9629
-30.6552
-27.9515
-25.0462
-22.0991
-19.0407
-16.2113
-13.5622
-11.3436
-9.4997
-8.0237
-7.0336
-6.3696
-6.2472
-6.6384
-7.4044
-8.4063
-9.8246
-11.3053
-12.8273
-14.3769
-16.0304
-17.7254
-19.6145
-21.7395
-23.8921
-26.0929
-28.4325
-31.0078
-33.7010
-36.6577
-39.8850
-43.1676
-46.4360
-49.6486
-52.6039
-55.2048
-57.3956
-59.0792
-60.2764
-60.9038
-60.9962
-60.3730
-59.1661
-57.6881
-55.9667
-54.0505
-52.1408
-50.4740
-49.1956
-48.4308
-48.1031
-48.1987
-48.7453
-50.0207
-51.9138
-54.2023
-56.7891
-59.6602
-62.3087
-64.6373
-66.6461
-68.2309
-69.3987
-70.3576
-70.9690
-71.1841
-71.0377
-70.5505
-69.8477
-68.8805
-68.2393
-67.7990
-67.3514
-66.9380
-66.5797
-66.0126
-65.3062
-64.3493
-62.9822
-61.1911
-58.8716
-56.0031
-52.3355
-47.8965
-42.7488
-36.8505
-30.0003
-22.2052
-13.3541
-3.3010
7.9540
20.5706
34.5906
50.1319
67.3473
86.2369
106.7520
128.9899
152.8048
178.2244
204.9500
232.6485
260.9587
289.3319
317.2821
337.4273
349.1842
352.0667
345.7345
329.8543
304.1553
268.4638
222.9395
167.8256
103.6429
31.0789
-49.0540
-122.2556
-187.8317
-244.7335
-292.3291
-330.2296
-358.0878
-375.9453
-383.8508
-381.9848
-370.9584
-351.3411
-323.8619
-296.0349
-268.3947
-241.9691
-217.3275
-194.8797
-174.8826
-157.2875
-142.0945
-129.2967
-118.6370
-109.8793
-102.6488
-96.8619
-92.2132
-88.3346
-84.9275
-81.8739
-79.0000
-76.3129
-73.7222
-71.2142
-68.6290
-65.9666
-63.3798
-60.6951
-57.9679
-55.1913
-52.5598
-49.9622
-47.5513
-45.2369
-43.2619
-41.5222
-40.0734
-39.0404
-37.8608
-36.6388
-35.3950
-34.0810
-32.5370
-30.7074
-28.4673
-25.7680
-22.4082
-18.4502
-13.9637
-8.8026
-3.9532
0.8137
5.5676
10.2737
14.9460
19.5151
23.9669
28.2391
32.3385
36.2653
39.9707
43.2742
46.6898
49.9395
52.9263
55.6016
58.0138
60.1145
61.9105
63.2700
64.3665
65.1862
65.8540
66.7033
67.6925
68.9534
70.4306
72.2976
74.4364
76.8679
79.6058
82.8448
86.2722
90.0061
94.0396
98.1575
102.4013
106.8197
111.6142
116.6110
121.7824
127.1979
132.7741
138.4832
144.3879
150.3421
156.1793
161.9481
167.5096
172.6971
177.4065
181.6585
185.5644
189.0339
192.2196
194.8995
197.1984
199.1721
200.9801
202.5669
204.1340
205.7925
207.4797
209.2306
210.9756
212.7911
214.5174
216.4809
218.4941
220.5847
222.6904
224.7277
226.6758
228.4861
230.2004
231.8185
233.2641
234.4260
235.4155
235.9061
236.1131
235.9254
235.3361
234.5395
233.3205
231.7345
229.7886
227.5243
225.0806
221.6381
216.9329
211.1940
204.1647
195.8934
186.3316
175.2849
162.9269
149.1741
134.0615
117.4916
99.4230
81.6124
64.4141
47.7101
31.7989
16.7431
2.6328
-10.2609
-21.9035
-32.2740
-41.4350
-49.4004
-56.1146
-62.3761
-68.3310
-73.9235
-79.2301
-84.3202
-89.1035
-93.6982
-98.1457
-102.3491
-106.1623
-109.3979
-112.1878
-114.6015
-116.5765
-118.1197
-119.3353
-120.0705
-120.4781
-120.6275
-120.6367
-120.4850
-120.4085
-120.5460
-120.8767
-121.4215
-122.3122
-123.4030
-124.7149
-126.3727
-128.3278
-130.4068
-132.4150
-134.4567
-136.3512
-138.0501
-139.3658
-140.2150
-140.5212
-140.4025
-139.7549
-138.5434
-136.7751
-134.6931
-132.3597
-129.7265
-126.8698
-123.8452
-120.9929
-118.2852
-115.6734
-113.3034
-111.2168
-109.5179
-108.1301
-106.9425
-105.8925
-104.9801
-104.2539
-103.5889
-102.6726
-101.6578
-100.6487
-99.4717
-98.1127
-96.4262
-94.5855
-92.6186
-90.6364
-88.6739
-86.5919
-84.4948
-82.4798
-80.4704
-78.3624
-76.3226
-74.3857
-72.6628
-70.9872
-69.3450
-67.7988
-66.3346
-64.9524
-63.7009
-62.5800
-61.6523
-60.8622
-60.0568
-59.2155
-58.1993
-57.1053
-55.9129
-54.5177
-52.9269
-51.2722
-49.5190
-47.7020
-45.7449
-43.8350
-41.9447
-40.0114
-38.1949
-36.3979
-34.5094
-32.5640
-30.4645
-28.0651
-25.4075
-22.4292
-19.2482
-15.7881
-12.2433
-8.6835
-4.9973
-1.2751
2.1290
5.3051
8.1145
10.3835
12.2441
13.5990
14.7122
15.4724
16.1923
16.7884
17.0942
17.1860
17.4387
17.6511
17.8578
18.1144
18.3167
18.4995
18.4751
18.3965
18.1039
17.7432
17.6059
17.5601
17.4670
17.5140
17.6040
17.6675
17.7600
17.9648
18.2543
18.5866
18.8578
18.8593
18.4385
17.6925
16.5658
14.8987
12.9829
10.9780
8.9882
6.8678
4.6721
2.4569
0.3748
-1.2685
-2.6120
-3.6278
-4.2467
-4.2115
-3.8418
-3.1375
-2.3348
-1.2947
-0.1285
1.1223
2.3118
3.1483
3.8055
4.2972
4.4637
4.0620
3.3420
2.1857
0.7181
-1.1303
-3.1095
-5.2055
-7.3490
-9.2829
-11.0213
-12.6334
-13.9319
-14.6876
-15.1435
-15.1469
-14.7324
-13.8307
-12.6223
-11.1836
-9.4173
-7.4555
-5.3814
-3.2090
-0.9104
1.2226
3.3706
5.4434
7.5242
9.5228
11.4114
13.3706
15.2336
17.0353
18.8588
20.6835
22.4328
24.2111
25.9487
27.6874
29.2744
30.6472
31.9586
32.9446
33.6678
34.0866
34.1869
33.9549
33.3143
32.4108
31.3139
29.9958
28.5607
27.3419
26.2352
25.5115
25.1985
25.3588
25.9923
27.1337
28.9497
31.2598
33.9598
36.9663
40.2654
43.4197
46.4500
49.2103
50.6384
50.7201
49.3306
46.5740
42.4294
37.0566
30.5250
22.8208
13.9299
4.0886
-6.7448
-18.5913
-29.3465
-39.1078
-47.6807
-55.0929
-61.6085
-67.2620
-71.9703
-75.6290
-78.1619
-79.5620
-79.8293
-78.9290
-77.9932
-76.8482
-75.7024
-74.5974
-73.2069
-71.6419
-70.0831
-68.5165
-67.0463
-65.6656
-64.2633
-62.8671
-61.2549
-59.7113
-58.0559
-56.2955
-54.7357
-53.3419
-52.1487
-51.1283
-46.8920
-39.4327
-28.6740
-14.4077
3.2968
24.7035
49.6941
78.1924
110.2748
145.6425
184.0179
224.9634
261.2151
292.1480
316.8941
334.5923
344.5272
346.1641
339.2461
323.5717
298.9814
265.9055
224.8025
176.1167
124.0357
69.3233
13.0907
-43.5997
-99.5881
-153.9926
-205.9383
-254.6958
-299.3279
-339.4733
-374.4445
-403.7694
-427.1771
-444.2926
-455.1715
-459.8069
-458.4557
-451.3261
-438.3003
-419.9338
-397.0598
-370.4215
-341.1299
-310.0046
-277.8372
-245.5235
-213.5566
-182.7073
-153.4480
-126.2298
-102.5322
-82.2438
-65.2607
-51.2771
-39.8488
-30.6423
-23.3174
-17.4782
-13.0346
-9.4726
-6.7297
-4.5420
-2.1318
0.3898
3.1409
5.9686
8.8105
11.5763
14.1340
16.3656
18.3197
19.8712
21.2286
22.2875
23.0550
23.8158
24.4517
25.1712
26.2451
27.6108
29.3169
31.3982
33.8200
36.5336
39.4904
42.7389
46.2446
49.8059
53.4507
57.1442
60.3725
63.3856
66.1210
68.6690
71.2101
73.7652
76.3828
79.1185
82.0417
85.0970
88.2425
91.4088
94.7279
98.0401
101.4217
104.7339
107.9071
110.9483
113.7673
116.3709
118.7384
120.9391
123.1814
125.4723
127.8464
130.4217
133.0178
135.6762
138.2721
140.9511
143.6230
146.3504
149.2651
152.3740
155.5453
158.8900
162.5192
166.1968
170.2284
174.6070
179.3256
184.1412
189.2413
194.3481
199.1838
203.7484
207.9932
211.7378
214.9196
218.3094
221.7961
225.4630
229.4213
233.8167
238.6562
244.2871
250.8412
258.3879
266.8788
276.4317
287.1092
297.5364
307.7825
317.6046
326.9055
335.6642
343.7072
350.7081
356.6738
361.4445
365.0898
367.5332
368.6706
369.2865
369.0965
368.4753
367.4161
365.8702
363.9835
361.9365
359.7431
357.4727
355.2295
353.0413
350.9357
348.8296
346.9312
344.9974
343.1880
341.5029
339.8102
338.0682
336.2283
334.3530
332.1715
329.3573
325.8132
321.5392
316.3479
310.1002
302.6851
294.1304
284.4777
273.7478
262.0657
249.4037
235.9631
222.5216
209.2738
196.2960
183.8313
172.2754
161.6840
152.0430
143.5748
136.3349
130.1913
125.1718
121.2903
118.0398
115.4134
113.2791
111.6647
110.4035
109.3705
108.5657
107.7252
106.6893
105.4857
104.1005
102.5477
100.8132
98.8694
96.8760
94.7287
92.3929
89.9518
87.4055
84.8303
82.4484
80.2738
78.0772
75.5671
72.8544
69.9252
66.6616
62.9941
58.9087
54.4125
49.7067
44.7845
39.4443
33.7766
28.0591
22.8750
18.2384
14.0449
10.3710
7.3625
5.0680
3.4737
2.3919
1.8505
1.8078
2.1666
2.8851
3.4704
3.9641
4.3522
4.6140
4.6453
4.3210
3.7523
2.9183
1.8260
0.7392
-0.3282
-1.4942
-2.4880
-3.5388
-4.4939
-5.4435
-6.3806
-7.1595
-7.8704
-8.5481
-9.3037
-10.2275
-11.3472
-12.4198
-13.6537
-14.7711
-15.8830
-16.8785
-17.6602
-18.3533
-19.0340
-19.6539
-19.9142
-19.9886
-19.7938
-19.5172
-19.1590
-18.9482
-18.8363
-18.8164
-19.0064
-19.3092
-19.7109
-20.1212
-20.9222
-21.9261
-23.1124
-24.5990
-26.1081
-27.5426
-28.8052
-29.9446
-31.1065
-32.2285
-33.3037
-34.4571
-35.4525
-36.4080
-37.4695
-38.3592
-39.3063
-40.2066
-41.0878
-41.9501
-42.4670
-42.7843
-42.7772
-42.3899
-41.6989
-40.6835
-39.4060
-38.1721
-36.8638
-35.6476
-34.7041
-33.9779
-33.5799
-33.3714
-33.5399
-34.0575
-35.0076
-36.2167
-37.5596
-38.7795
-40.1612
-41.5795
-42.9582
-44.4153
-46.0341
-47.9883
-50.0556
-52.3193
-54.5435
-57.0127
-59.5187
-62.1518
-64.4814
-66.5631
-68.2926
-69.6076
-70.4663
-70.7161
-70.4887
-69.7079
-68.5056
-66.6319
-64.4894
-62.0365
-59.5928
-57.3386
-55.3575
-53.6216
-52.0128
-50.6076
-49.4407
-48.5399
-47.8704
-47.6683
-47.6074
-47.7362
-47.9644
-47.9517
-47.8232
-47.5998
-47.4688
-47.4095
-47.3316
-47.2143
-47.1826
-46.9032
-46.5566
-46.1080
-45.6062
-45.3150
-44.9914
-44.5728
-43.9621
-43.1940
-42.3309
-41.4007
-40.2853
-39.3876
-38.6171
-38.0087
-37.4651
-36.8614
-36.3920
-36.0985
-36.0573
-36.2061
-36.6974
-37.5592
-38.7358
-39.9565
-41.2629
-42.5995
-44.0357
-45.4673
-46.7624
-47.9419
-49.0057
-50.0095
-50.5573
-50.6214
-50.3546
-49.8680
-49.1963
-48.3118
-47.1450
-45.8695
-44.4576
-42.9648
-41.2800
-39.3129
-37.3760
-35.4069
-33.4681
-31.4067
-29.1324
-26.9163
-24.8345
-22.9913
-21.4423
-20.1735
-19.3587
-19.1366
-19.3961
-20.2484
-21.3880
-23.0786
-25.4107
-28.0438
-31.0823
-34.2969
-37.8890
-41.8239
-45.9418
-50.2845
-54.7825
-59.3942
-64.4250
-69.6598
-74.9457
-80.4842
-85.8446
-91.1381
-95.9412
-100.2328
-103.9020
-106.8168
-109.0328
-110.6125
-111.4238
-111.4461
-110.9986
-109.9426
-108.6809
-107.1023
-105.5609
-104.0707
-102.7637
-101.5842
-100.5947
-99.6703
-98.8319
-98.3154
-97.8293
-97.5055
-97.2468
-97.2545
-97.3134
-97.3818
-97.5847
-97.9847
-98.5331
-99.2784
-99.1444
-97.8394
-95.1828
-90.9802
-84.9954
-76.8812
-66.5821
-53.7648
-38.0611
-19.2837
2.6718
28.0344
54.7763
82.8282
111.8150
141.6117
171.7948
201.9544
231.7434
260.1410
286.4179
309.8034
329.5613
344.7749
355.8402
362.0487
363.0046
358.1316
347.1866
329.9057
306.0250
276.0862
240.3462
199.3329
153.7058
104.3332
52.0483
-2.1975
-57.6056
-113.3218
-165.2211
-212.2965
-253.5550
-288.5036
-316.4270
-336.8389
-349.4062
-353.8441
-350.1526
-338.5400
-319.0757
-292.0446
-264.3701
-236.8161
-210.0008
-184.3408
-160.5722
-139.1464
-120.5495
-105.2467
-93.5020
-85.4196
-81.3257
-81.0190
-81.2218
-81.5867
-81.9194
-82.1574
-81.8979
-81.1824
-79.8028
-77.8701
-75.3843
-72.3176
-68.6145
-64.4833
-60.0420
-55.4156
-50.8056
-46.3160
-42.1275
-38.2401
-34.7161
-31.5696
-28.8352
-26.5546
-24.7695
-23.5493
-22.7828
-22.5535
-22.7501
-23.3102
-24.1644
-25.2085
-26.4077
-27.5467
-28.5909
-29.5333
-30.0682
-30.0570
-29.5202
-28.4580
-26.9190
-24.9309
-22.6743
-20.1908
-17.7513
-15.3905
-13.1153
-10.9188
-9.0857
-7.7548
-6.8776
-6.3429
-6.1161
-6.0234
-5.9677
-5.8865
-5.5019
-4.9459
-4.2255
-3.3754
-2.3330
-1.0498
0.4048
1.9823
3.6409
5.1793
6.6322
7.8260
8.6774
9.2905
9.7764
10.1561
10.4573
10.7563
11.0949
11.5009
11.9186
12.5079
13.2687
14.2566
15.7424
17.6845
19.8815
22.3612
25.1375
28.0575
31.0589
34.1694
37.5626
41.1135
44.8292
48.7859
52.3725
55.7072
58.9497
62.0166
64.8733
67.7975
70.9072
74.1053
77.4543
80.9264
84.5008
88.1497
92.2551
96.6364
101.2311
106.0948
111.2692
116.4209
121.3069
125.9412
130.1083
133.8848
137.3123
140.3144
142.7522
144.7577
146.2963
147.4164
147.9862
148.1307
148.0860
147.8382
147.3873
146.6292
145.5292
144.2748
143.1298
141.9138
140.8003
139.7615
138.8323
138.1585
137.5664
137.1394
136.2456
134.9752
133.2241
130.7215
127.2938
123.0729
117.7046
111.1405
103.4915
94.5981
84.6545
73.5359
62.5826
51.7251
41.0536
30.8044
20.7899
11.0934
1.9720
-6.5952
-14.6915
-22.2960
-29.6311
-36.5716
-43.6663
-50.7969
-57.9496
-65.1869
-72.2518
-79.2208
-86.1423
-92.9193
-99.5029
-105.8725
-111.7780
-117.3097
-122.5786
-127.6820
-132.5504
-137.3644
-142.0822
-146.7456
-151.3337
-155.8881
-160.3255
-164.7014
-169.1062
-173.5189
-177.8354
-181.8959
-185.7630
-189.1519
-192.1806
-194.8630
-197.0603
-198.7793
-200.2908
-201.5880
-203.1708
-204.8516
-206.8597
-209.2297
-212.0173
-215.3889
-219.4003
-223.8708
-228.9809
-234.6752
-240.7868
-247.1144
-252.8387
-258.1538
-262.7405
-266.8210
-270.4229
-273.4144
-275.6357
-277.4062
-278.7398
-279.6296
-279.9644
-279.9526
-279.8441
-279.6389
-279.6356
-279.6815
-279.5334
-279.4066
-279.3775
-279.1892
-278.7166
-278.0708
-277.3421
-276.4957
-275.6845
-274.7139
-273.4034
-271.7529
-270.0542
-268.0641
-265.9771
-263.8557
-261.6235
-259.2456
-256.7083
-253.9282
-250.8705
-247.8616
-244.9780
-242.2542
-239.5792
-237.0501
-234.3615
-231.6452
-229.2693
-227.1852
-225.5386
-224.4616
-223.8707
-223.6409
-223.7236
-224.0703
-224.6252
-225.3746
-226.5406
-227.8385
-229.1641
-230.5174
-231.8358
-233.0083
-234.2154
-235.4085
-236.6361
-237.9469
-239.4172
-241.0678
-242.8016
-244.8476
-246.9837
-249.2792
-251.6369
-254.0916
-256.4210
-258.6458
-260.7523
-262.7750
-264.6377
-266.4583
-268.1536
-269.7650
-271.3553
-272.9381
-274.5343
-276.2343
-278.2184
-280.3965
-282.8241
-285.2581
-287.7679
-290.2425
-292.7233
-294.9467
-296.9889
-298.7179
-300.2033
-301.2852
-301.8665
-302.0581
-301.7283
-301.1824
-300.4622
-299.5259
-298.5195
-297.6720
-296.9556
-296.4468
-296.0830
-295.8849
-295.9014
-296.0419
-296.1816
-296.2925
-296.2498
-296.1228
-295.6477
-294.7827
-293.6528
-292.2511
-290.6956
-289.1252
-287.5190
-285.9812
-284.9007
-284.0760
-283.5697
-283.4790
-283.8384
-284.5857
-285.4498
-286.5003
-287.5773
-288.3823
-288.8805
-289.1206
-288.8663
-288.2566
-287.2497
-285.6375
-283.7600
-281.2700
-278.3413
-274.9042
-270.9449
-266.9773
-262.9874
-258.7878
-254.3923
-249.7940
-245.0692
-240.3152
-235.2819
-230.7401
-226.6760
-223.2770
-220.6056
-218.1757
-216.2512
-214.8111
-214.0292
-213.7665
-214.0924
-214.8542
-216.0449
-217.3171
-218.6155
-219.4955
-219.9988
-220.4378
-220.5278
-220.4910
-220.1955
-219.8219
-219.2311
-218.7079
-218.3496
-218.1213
-218.1412
-218.8050
-220.0710
-221.8490
-224.1876
-226.9270
-230.0117
-233.4069
-237.1890
-241.1010
-245.0666
-249.0718
-253.0471
-256.7704
-260.1930
-263.2038
-265.4139
-266.8580
-267.4665
-267.1147
-265.7884
-263.6544
-260.6015
-256.7131
-251.8920
-246.2908
-239.9860
-233.0886
-226.3070
-219.7454
-213.5148
-207.8235
-202.4841
-197.3437
-192.6663
-188.1670
-183.8737
-179.7030
-175.6896
-171.7016
-167.3639
-162.4334
-157.0561
-150.9541
-144.2454
-137.1384
-129.4455
-121.3126
-112.7049
-103.4350
-93.2458
-81.9707
-69.5195
-55.8642
-40.5188
-28.2402
-19.6187
-14.9042
-14.5343
-19.0298
-28.7795
-44.4015
-66.4445
-95.2832
-131.3832
-174.9734
-226.4289
-276.5067
-323.9636
-367.8552
-407.1675
-440.8104
-468.0546
-487.9974
-499.9373
-503.7145
-498.8223
-485.2326
-463.0707
-437.0238
-407.9185
-376.5741
-343.8378
-310.5639
-277.4258
-245.1182
-214.1269
-184.6465
-157.0798
-131.6350
-108.1177
-86.6669
-67.3032
-49.7628
-33.9207
-19.6450
-6.7481
4.9506
15.4787
24.9962
33.8084
42.1377
49.9563
58.1809
67.0337
76.4730
86.5683
97.3543
108.9213
121.2625
134.5305
148.7184
163.6180
179.2639
195.6075
211.1559
225.9089
239.8111
252.9459
265.4311
277.2740
288.5021
298.8794
308.3851
317.0887
324.9831
332.0477
339.1295
346.0690
352.9077
359.4582
365.6510
371.3265
376.5124
381.5073
386.2418
390.7229
394.9367
398.9734
402.7220
406.2727
409.7367
413.3292
417.0294
420.9208
424.9684
429.0405
433.1787
438.2232
444.1325
450.8162
458.2188
466.3889
475.0904
484.1636
493.6363
503.5640
513.9885
524.9722
536.5984
547.3741
557.3272
566.6867
575.5013
583.7572
591.7597
599.5508
607.2830
614.7621
622.0088
628.8703
635.3953
642.0699
648.9150
655.7013
662.3941
668.9518
675.0898
680.9884
686.3631
691.4777
696.2003
700.7252
704.8582
708.8908
712.7606
716.4537
720.1437
723.8167
727.5560
731.1533
734.7059
738.1651
741.6213
744.9494
748.2744
751.4644
754.6305
757.8768
761.1063
764.3535
767.6879
771.1166
773.4449
774.4855
774.0717
772.1827
768.6656
763.4788
756.4557
747.5129
736.4977
723.3336
707.9790
690.3783
672.9968
656.0360
639.6347
623.7512
608.5592
594.0725
580.3606
567.4721
555.5460
544.6307
534.7055
526.0204
517.2837
508.4537
499.6625
491.0766
482.7030
474.7292
467.1831
460.1478
453.6027
447.5546
442.0590
436.8939
432.1564
427.8186
423.7210
419.7038
415.6836
411.4799
407.1760
402.5705
397.7607
392.7119
387.3962
381.9248
376.3670
369.9453
362.5691
354.5165
345.9261
336.9161
327.3615
317.4914
307.2226
296.5480
285.5371
274.0719
262.0204
250.9728
241.2279
232.4731
224.5902
217.4128
211.0657
205.4657
200.5432
196.3677
192.8907
190.3274
188.5597
186.7820
184.8278
182.9053
181.1049
179.5583
178.2935
177.2619
176.5328
176.2034
176.2391
176.5010
177.2738
178.6894
180.7894
183.4281
186.3763
189.3701
191.6178
193.1333
194.0624
194.2316
193.7171
192.5469
190.4152
187.1069
182.5038
176.6755
169.8163
162.3360
155.5610
149.4148
143.6892
138.4604
133.5342
128.8965
124.7626
121.1395
118.1175
115.7451
113.8905
112.5049
110.8454
109.0647
107.1489
105.0633
102.9815
100.9243
98.8917
96.9809
95.1850
93.5526
92.1462
90.7782
89.6709
88.7896
88.1829
87.8437
87.7444
87.7044
87.7097
87.6493
87.5370
87.1715
86.6360
85.9515
84.9511
83.6697
82.1350
80.3886
78.3750
76.3234
74.0046
71.3839
68.3431
65.0768
61.5155
57.7285
53.7577
49.5195
45.0419
40.2970
35.4792
30.4706
25.6737
21.3874
17.8268
14.8530
12.5493
10.8672
9.8275
9.4024
9.5501
10.2707
11.3281
12.7153
14.2032
15.6528
16.8003
17.6872
18.2442
18.4365
18.2850
17.9076
17.3392
16.6629
15.9970
15.4732
15.0153
14.6578
14.6925
15.0500
15.7232
16.8094
18.2460
19.8943
21.7818
23.6031
25.3096
26.8665
28.3849
29.7606
30.7714
31.4937
32.0039
32.1700
31.8947
31.2962
30.3327
29.3792
28.5260
27.6551
26.6969
25.7209
24.8729
24.0627
23.1513
22.2220
21.4485
20.6294
19.7090
18.4861
16.9396
15.1392
13.1333
10.9011
8.3524
5.6607
2.9511
0.2373
-2.4250
-4.7651
-6.7204
-8.1937
-9.3379
-10.1876
-10.6388
-10.8094
-10.7134
-10.5175
-10.3328
-10.4926
-11.1497
-12.4777
-14.5532
-17.3690
-20.8836
-25.0970
-30.1202
-35.9048
-42.3604
-49.3899
-56.9237
-64.1564
-71.0602
-77.3990
-82.9506
-87.7705
-91.5950
-94.2850
-95.8198
-96.1161
-95.0281
-92.5348
-88.6573
-83.9649
-78.4298
-72.2535
-65.6305
-58.3524
-50.5859
-42.4213
-33.7196
-24.2519
-14.3166
-3.7402
7.7272
20.3219
34.2382
49.6913
66.8758
85.5624
99.7928
109.3031
113.3363
111.3437
103.1727
88.2121
65.9896
36.2135
-1.5049
-47.5340
-102.0054
-164.8014
-223.9773
-278.8041
-328.0109
-370.9312
-407.0162
-435.4257
-455.7987
-467.3921
-469.8309
-462.9553
-447.0155
-422.3101
-395.1168
-366.1023
-336.1902
-305.9918
-275.9305
-246.8120
-218.8585
-193.3131
-170.5300
-150.5717
-133.2645
-118.4141
-105.7010
-94.9655
-85.9924
-78.5248
-72.4028
-67.2239
-62.8768
-58.6949
-54.5532
-50.3685
-46.0852
-41.6824
-37.2088
-32.6852
-28.0770
-23.4327
-18.9052
-14.5222
-10.4227
-6.7872
-3.6366
-1.1167
0.8002
2.1350
2.7973
2.8150
2.2365
1.0828
-0.3961
-2.1726
-4.1356
-6.0419
-7.7527
-9.0876
-10.1714
-11.1362
-11.9472
-12.5350
-12.9900
-13.3815
-13.8694
-14.5231
-15.2939
-16.1958
-17.2705
-18.4346
-19.5633
-20.5105
-21.1584
-21.5208
-21.5631
-21.0977
-20.2774
-19.0119
-17.2875
-15.2082
-12.9270
-10.6242
-8.3209
-6.0795
-3.9278
-2.0186
-0.2685
1.1695
2.6358
4.0540
5.2991
6.4196
7.6169
8.9188
10.1794
11.5724
12.9935
14.5608
16.1771
17.9117
19.6466
21.3540
23.1381
24.9433
26.4431
27.8390
29.3878
30.8744
32.4028
34.0216
35.8627
37.7248
39.6079
41.5257
43.4228
45.3338
47.7101
50.3156
53.0531
55.9085
58.7501
61.5985
64.1900
66.8508
69.4073
71.8248
74.2005
76.5066
78.5487
80.2503
81.5906
82.6807
83.6038
84.1101
84.5397
84.7120
84.6966
84.6947
84.5814
84.4330
84.2982
84.4199
84.7217
85.2037
85.8658
87.0067
88.2581
89.6064
91.1277
92.7527
94.4605
96.1052
97.1105
97.1916
96.4666
94.7757
92.0911
88.2044
83.3310
77.5194
70.7557
62.8108
53.8026
43.8701
33.9160
24.0931
14.3597
4.7574
-4.6651
-13.7969
-22.6794
-31.3823
-39.8986
-48.1171
-56.0935
-63.8625
-71.7991
-79.6742
-87.5363
-95.1772
-102.5830
-109.7677
-116.6755
-123.0706
-129.0292
-134.4194
-139.3177
-143.7587
-147.6454
-151.3457
-154.7832
-158.0830
-161.2868
-164.4155
-167.4967
-170.7250
-173.9614
-177.3520
-180.7229
-184.0258
-187.4340
-190.7534
-193.9491
-197.0002
-200.4139
-204.2179
-208.3357
-212.8925
-217.7840
-222.9269
-228.3560
-233.9255
-239.6423
-245.4926
-251.6429
-258.0726
-263.7538
-268.5963
-272.8500
-276.1262
-278.7373
-280.6209
-281.8325
-282.7332
-283.1355
-283.0812
-282.4383
-281.4082
-280.5673
-279.8948
-279.1616
-278.8050
-278.6378
-278.8473
-279.4475
-280.1467
-280.9449
-281.7728
-282.6441
-283.2604
-283.4271
-283.2971
-282.9538
-282.1470
-280.9325
-279.1782
-276.8703
-274.1546
-271.3160
-268.4584
-265.5959
-262.9577
-260.8770
-259.0206
-257.3954
-256.1472
-255.3109
-254.8238
-254.7486
-254.9949
-255.2919
-255.5286
-255.7188
-255.6264
-254.8348
-253.7885
-252.4249
-250.5357
-248.0932
-245.1529
-241.6176
-237.6609
-233.4496
-229.1225
-224.7768
-220.6418
-217.0299
-213.7884
-211.0284
-208.7846
-207.0153
-205.7832
-205.2687
-205.0969
-205.2885
-205.7534
-206.3527
-206.9752
-207.5030
-207.8734
-207.8991
-207.8092
-207.5829
-207.2341
-206.5614
-205.9260
-205.2166
-204.4751
-203.6805
-202.9580
-202.3422
-201.7497
-201.6182
-201.7532
-202.2935
-203.1767
-204.3473
-205.7427
-207.1824
-208.7636
-210.4170
-211.9619
-213.3775
-214.8583
-215.8418
-216.3974
-216.4349
-216.1418
-215.6015
-214.7860
-214.0428
-213.2884
-212.5924
-212.0519
-211.6808
-211.3542
-211.2943
-211.3622
-211.4815
-211.2980
-210.7980
-209.8563
-208.3064
-205.8843
-202.7359
-199.0001
-194.6699
-189.7940
-184.4835
-178.9745
-173.4615
-168.2014
-163.3053
-158.9260
-155.0566
-152.1832
-150.2364
-148.8966
-148.2404
-148.1913
-148.5063
-149.1021
-149.7634
-150.4345
-151.1504
-151.9040
-152.7856
-153.3577
-153.6689
-153.8999
-153.8977
-153.7389
-153.4096
-152.7916
-151.9822
-150.9120
-149.4213
-147.3712
-144.7130
-141.7176
-138.2601
-134.3542
-129.9862
-125.1630
-120.3429
-115.6995
-111.2606
-107.0471
-103.1422
-99.6919
-96.6614
-93.8494
-91.4502
-89.2625
-87.4807
-86.0980
-84.7045
-83.2100
-81.5451
-79.7723
-77.8082
-75.5279
-73.0910
-70.6851
-68.0533
-65.5774
-63.1048
-60.6076
-58.5302
-56.8450
-55.5936
-54.7898
-54.4545
-54.6572
-55.1479
-55.9404
-57.0903
-58.3268
-59.8652
-61.6360
-63.1253
-64.3123
-65.1762
-65.6961
-65.8929
-65.7805
-65.4838
-64.8293
-63.9836
-62.9607
-61.4202
-59.6121
-57.5782
-55.3530
-53.0757
-50.6627
-48.1280
-45.4230
-42.5824
-39.7312
-36.7791
-33.6984
-30.6695
-27.4288
-24.2260
-21.0682
-17.7748
-14.4152
-11.1562
-8.0880
-5.1481
-2.2670
3.1246
11.0407
21.6896
35.1824
51.8247
71.6929
94.8494
121.3359
151.4372
185.1741
222.3243
262.6032
300.5662
335.5329
366.5866
392.6509
413.0312
426.9569
433.6502
432.5484
423.0892
404.8837
377.9873
342.6501
301.7680
256.0492
206.0077
152.9421
97.6718
41.3287
-15.0871
-70.4020
