---
Mammal:            human
Fs:                25
Integration_level: photoplethysmogram

Channels:

    - type:   photoplethysmography
      name:   PPG
      unit:   mV
      enable: yes

---
0.850922
3.155468
-2.652424
-8.572810
-5.747937
0.068829
4.739221
9.714317
8.725673
8.343307
19.506661
26.090769
16.589395
-0.495765
-11.744182
-12.086145
-13.576003
-15.304600
-10.130106
-5.702356
-6.607853
-11.171088
-11.683445
-3.678609
6.108450
11.599835
10.316028
9.610730
19.505071
27.495774
15.123631
-9.505163
-21.536053
-15.479015
-9.341717
-8.866656
-10.182237
-11.022013
-4.289422
2.307771
2.522421
2.270231
1.408146
8.001927
19.645078
16.774251
3.257553
-2.413800
-0.695499
-5.210706
-10.934347
-7.350848
-7.421736
-12.310543
-7.840148
-0.424993
3.423683
10.258550
14.769645
7.439270
4.258871
15.002988
10.903271
-10.845558
-15.531388
-7.208989
-7.792840
-7.801283
-2.382607
0.277205
-0.296911
-4.046858
-4.720673
2.427424
7.862134
8.744651
12.799121
21.450617
22.358616
5.015162
-11.072603
-9.764270
-9.119146
-13.709215
-12.363552
-8.778675
-5.680387
-4.705384
-7.064534
-1.643670
11.356339
15.026291
10.109930
10.695950
11.452984
0.167971
-13.385137
-17.019619
-12.077963
-3.117585
1.183412
-1.915271
-7.937587
-9.904515
-0.225061
11.468865
12.349837
10.345109
17.324983
24.259692
14.889390
-3.077068
-13.426635
-14.981892
-12.835032
-12.149197
-11.058998
-6.111484
-5.263046
-13.028963
-12.036317
6.690932
14.262631
9.507593
18.652038
17.700518
-2.729331
-9.699968
-4.485465
-1.933898
-4.801377
-10.784434
-9.377462
-5.923290
-5.384283
2.835719
12.657119
15.089094
18.534211
22.977712
19.082747
10.372475
2.629834
-9.715979
-21.952048
-17.363250
-3.910893
-2.697500
-9.554786
-10.743682
-4.785688
2.416857
3.336531
1.817505
8.668822
18.022712
17.344514
6.567622
-3.422805
-5.305250
-6.541666
-11.551834
-16.286559
-19.131873
-16.720208
-10.706815
-7.898461
-5.194717
2.005980
10.999138
17.831810
17.720149
16.619848
23.538522
19.749266
-2.010506
-11.492129
-8.051935
-12.926573
-18.106992
-18.459949
-16.410235
-6.824683
-0.661679
-3.107135
1.020759
9.386141
10.920254
12.317187
16.114285
10.505968
-0.498235
-5.041165
-8.966344
-9.247052
0.543240
4.514808
-1.607536
-2.269276
0.926306
-2.908752
-3.234578
8.942200
17.991500
17.809964
12.215180
-1.758105
-11.669452
-9.535153
-7.744557
-6.657921
-2.164141
-5.623137
-14.413536
-11.103965
-1.691717
2.805527
8.469672
14.501260
17.458685
21.103229
16.447075
-0.146407
-12.031135
-18.671910
-21.842950
-13.604771
-9.265247
-12.962420
-7.104364
3.141076
7.005964
9.284131
12.773059
13.579997
16.434272
21.702685
13.442694
-2.654685
-7.575723
-8.828638
-14.579992
-13.855313
-6.747598
-8.592500
-15.201980
-11.327596
-6.447020
-3.942464
9.011272
18.541322
17.226123
23.119707
29.122870
16.603243
-4.068119
-14.524576
-17.056342
-15.528984
-8.119097
-6.323156
-11.279901
-9.324286
-4.829880
-3.620353
0.106425
5.463131
9.942409
14.125989
17.371851
15.201284
3.249185
-8.077717
-10.853973
-13.007907
-13.119251
-7.352991
-3.231738
-2.996894
-2.882016
1.202903
6.860221
7.447338
10.399662
17.981178
14.522409
-0.328599
-9.700161
-11.457434
-13.834426
-12.772489
-7.335965
-5.546880
-6.684089
-6.977221
-1.115307
10.783030
17.475308
17.793136
14.461440
5.385479
-5.590684
-13.174904
-13.283095
-6.260162
1.003652
0.612343
-4.800620
-3.491765
0.258843
1.652931
6.148084
9.777095
15.584253
21.140098
11.168016
-6.226172
-13.041730
-10.689531
-13.384718
-16.958120
-5.609809
4.315979
-1.395150
-3.604382
1.320859
0.787027
2.667675
14.356667
17.055452
1.257383
-12.467945
-11.752950
-3.695274
0.632778
-2.221459
-2.899392
-0.680494
-0.098085
0.787546
1.408212
5.910961
15.645144
19.385256
8.814688
-6.995363
-12.410257
-9.405653
-7.885289
-10.499530
-12.467083
-5.898960
1.106366
1.302940
5.496963
12.879166
17.735842
21.668891
16.590438
0.219087
-13.778464
-15.372745
-9.419195
-6.537196
-6.909750
-5.446631
-3.284973
-0.467422
1.863154
-1.562371
-0.547636
13.008999
22.086586
18.082850
5.908697
-8.958810
-12.050440
-6.729342
-7.024614
-4.047089
-1.702849
-9.670454
-11.566707
-3.713755
6.410238
13.361222
9.650505
8.449298
12.589077
2.822862
-12.501919
-15.361162
-11.371624
-8.513461
-7.629728
-7.527316
-4.742192
0.026922
2.132428
4.187067
9.343525
12.446180
14.361051
15.626721
7.646868
-6.255919
-11.347704
-6.147509
-3.532950
-7.169719
-9.929277
-8.805297
-4.263740
1.021977
4.793003
7.777649
12.981305
21.757613
22.109486
5.403593
-10.692939
-10.153583
-4.171951
-8.429554
-15.689735
-11.836844
-5.172712
-5.042893
-4.797506
-0.353166
7.553748
13.918280
14.559536
13.491259
12.682330
7.679641
-4.745433
-15.608045
-15.934199
-12.252735
-7.698973
-3.605197
-5.104607
-5.264443
-0.466820
4.497176
6.509436
5.762267
12.056999
22.002471
21.019236
8.493336
-8.348016
-15.460954
-11.577265
-9.131139
-9.152226
-10.213111
-6.968849
0.949549
2.307566
-1.389028
0.091615
8.494775
15.631658
16.016271
7.141736
-8.226166
-12.759502
-7.356142
-5.918559
-5.588409
-6.892688
-7.059034
-2.290640
-1.935675
-3.119240
0.696829
7.349855
14.931031
18.944048
19.346992
15.096044
2.937137
-7.775001
-10.234283
-12.335692
-16.762464
-14.743600
-9.138115
-8.930889
-4.536414
5.496340
6.970168
6.439745
11.974669
13.496054
12.468998
15.288032
12.915999
-0.381571
-15.542121
-19.036511
-11.478102
-7.470010
-9.866104
-12.457832
-13.324892
-8.556803
0.164083
4.093332
7.430569
14.297444
15.882393
18.700674
25.561965
14.940498
-9.360127
-17.903247
-6.127989
3.114182
-2.395619
-9.719640
-10.479179
-8.920234
-6.639116
-5.121366
-2.435930
4.341755
10.219417
13.084967
11.274591
2.406212
-5.000082
-8.628055
-12.755073
-9.554566
-1.386359
-1.683469
-4.548118
-1.428628
4.207068
7.597383
6.723861
8.417889
11.717042
9.383160
4.297316
-5.957855
-16.797624
-15.811271
-7.425319
0.803981
2.073188
-4.963096
-5.569968
2.579606
9.124412
14.046011
16.956805
15.072455
6.837123
-9.339388
-20.920170
-15.495232
-3.764254
1.541425
-0.078845
-3.482484
-0.017759
8.050196
10.720950
13.334027
19.123097
14.285086
-0.628397
-11.629680
-15.214371
-9.866189
-2.115640
-4.146573
-9.273513
-7.953678
-1.852249
5.713155
9.744715
12.615687
18.416441
17.949509
4.819041
-11.408388
-15.331864
-10.998652
-12.761845
-15.959997
-17.944895
-15.657344
-2.645065
1.896773
-4.886205
1.606530
14.368431
15.988723
19.246571
30.534436
33.465727
23.214190
6.609385
-10.688324
-19.176326
-19.112515
-18.512160
-19.932220
-25.338772
-26.011876
-15.133674
-5.355530
-2.603923
-2.992774
-4.248082
1.395187
16.561134
26.664356
24.758398
26.514735
33.404639
29.102707
11.681801
-10.697547
-24.947929
-23.373061
-17.470966
-17.184868
-17.334354
-12.571218
-7.510280
-4.494082
-1.251484
0.130276
-3.900839
-6.297519
5.452390
18.544146
17.667481
16.434891
21.966595
24.356711
20.522052
8.871567
-12.621643
-25.365876
-14.953412
-4.510534
-10.427190
-16.640594
-14.468282
-11.256740
-9.351611
-8.441470
-9.582967
-6.161286
5.514799
13.238857
12.946152
17.752803
24.411166
16.645557
-2.058547
-16.645058
-17.778174
-11.052503
-8.244213
-5.106890
-1.308874
-3.233572
-5.640542
-5.211971
-0.421930
4.523726
3.858302
9.719902
21.758688
21.178592
17.152731
25.909067
24.834842
-0.320603
-20.584166
-20.436269
-13.310714
-7.939394
-6.466035
-9.836669
-12.707362
-6.390807
0.893348
-2.257106
-4.116314
4.414006
15.083464
20.793775
20.281673
12.365759
-0.214655
-13.181950
-23.974137
-23.801089
-10.551086
-1.173804
-3.759514
-3.684339
1.205166
3.168034
5.719015
5.884074
2.761327
2.804439
10.317792
21.525353
12.831976
-15.126917
-21.561707
-5.790011
-4.812071
-11.493281
-9.543608
-9.865434
-5.466779
7.596221
11.275724
-0.309028
-5.560621
11.053571
23.070243
14.202812
1.875183
-5.599061
-8.668372
-7.702998
-4.232783
-2.443629
-2.835428
0.547370
3.453799
4.340068
8.689747
13.490321
15.393375
11.254509
6.365691
3.437880
-5.862725
-9.007312
-3.082587
-7.565221
-17.015074
-16.094241
-9.038355
-2.239615
3.789907
1.950402
-2.033176
2.706073
6.695148
9.094248
10.939387
5.009019
-2.204179
-8.271340
-12.496012
-6.573515
0.538007
-0.811947
-1.567131
-4.134385
-9.002623
1.948282
13.962247
4.863179
1.179282
13.237624
14.395689
6.134787
-1.514895
-14.725330
-18.664856
-2.465334
5.216236
-6.697087
-9.640709
-1.786559
-1.262952
-0.285856
3.960723
8.592280
17.581158
18.296248
9.509576
2.521792
-5.082461
-9.671003
-8.504204
-7.794918
-8.860754
-9.834499
-8.319634
-4.180783
-1.198112
-1.569103
-2.681559
-1.273168
4.992767
14.220879
16.761439
6.486390
-6.936503
-9.727028
-5.628317
-3.638698
-3.408493
-5.711298
-7.791675
-4.377553
0.941771
3.228456
3.816104
7.018096
12.244808
16.727094
19.930205
16.038771
4.013577
-5.480199
-8.468269
-7.471819
-5.152626
-7.924156
-14.197856
-13.141430
-5.064405
-1.207174
-1.218969
2.824618
9.152832
16.287518
20.810831
11.125883
-5.511805
-11.170792
-10.918747
-12.165745
-9.471843
-6.651745
-8.334642
-7.017859
-3.896674
-5.048880
-2.880560
5.135151
11.800669
15.274532
16.091963
17.093760
15.156336
4.650947
-5.388856
-8.989393
-9.764690
-9.761318
-8.933800
-5.291250
-2.466353
-1.791428
0.055986
2.897918
4.493094
1.958603
6.759003
16.594282
6.445128
-10.785836
-13.468102
-11.491306
-10.439351
-9.159654
-4.812773
0.630648
-0.864467
-3.407062
-2.249950
1.802693
10.460370
16.617300
16.317986
14.541034
9.383715
-2.073384
-9.839951
-6.281864
-3.390618
-6.141680
-5.186911
-4.509209
-5.741859
-2.673484
-0.618143
-0.966043
2.231963
8.003904
14.488399
22.496826
20.137664
0.037940
-14.588232
-15.408246
-15.922665
-12.234432
-8.066745
-9.178920
-5.823087
-0.651429
0.675581
0.903816
1.696666
2.465798
6.708561
18.899647
21.311764
4.545759
-8.265858
-11.079281
-12.507339
-10.305288
-9.932410
-13.778856
-10.137707
2.115743
10.226792
9.128575
5.717987
7.449426
12.648584
14.917959
17.049460
14.167407
-1.165581
-10.304128
-6.577628
-6.767180
-9.724302
-6.343156
-2.419251
-3.874732
-3.859084
-0.395840
0.303263
1.752767
8.550553
15.182419
13.001800
0.049076
-12.267366
-14.714746
-14.416242
-13.245862
-7.666470
-6.883928
-8.024648
-0.846140
3.557146
1.856477
7.164198
16.169223
18.450694
19.226071
19.507732
10.184006
-2.518572
-8.640033
-11.148467
-11.683540
-9.742503
-9.268553
-11.394317
-10.752944
-5.306797
1.209072
7.764064
12.039649
12.052851
13.986886
15.034783
4.311130
-10.519670
-15.460499
-11.638445
-5.331959
-2.951330
-7.511865
-10.314099
-6.148733
-1.494113
2.025480
5.779543
7.900991
13.168144
22.291976
21.403421
5.942454
-9.852226
-14.951849
-11.436270
-7.657172
-7.685584
-9.965905
-12.446683
-7.027283
5.470585
9.304127
6.269655
7.499730
11.841382
15.803697
12.810786
0.362606
-10.174195
-9.893037
-5.526578
-8.567061
-16.270474
-14.728862
-2.891658
5.324975
5.299319
4.811418
8.030343
15.276772
22.487025
20.555116
8.763109
-4.010339
-9.934161
-9.961704
-7.367809
-2.590645
-4.614612
-12.251178
-10.749779
-6.296717
-4.325179
2.471757
6.779059
9.639766
17.910054
17.208389
1.119794
-15.946563
-20.306990
-14.162597
-8.579213
-6.171871
-9.053875
-12.068632
-3.754896
7.494034
9.708240
3.036173
-0.872193
11.166938
24.577246
18.715347
3.223197
-4.849455
-7.371530
-9.136020
-7.207361
-5.786140
-7.715164
-5.655269
-0.458870
3.052047
5.111640
7.751158
15.346026
20.479876
13.348859
-0.267578
-11.911814
-15.063332
-11.580538
-9.161945
-9.168700
-10.461041
-7.935514
-2.832072
1.829882
9.513136
12.660941
12.826857
21.327061
28.073241
18.878942
-0.516904
-13.078489
-16.337417
-17.896171
-15.847368
-13.759480
-14.635755
-11.175245
-6.267277
-1.856570
7.921764
16.405122
17.032638
17.282317
20.214050
18.197069
5.137375
-12.555087
-19.875900
-14.912506
-6.354406
-2.345919
-7.237970
-11.096158
-7.916456
-4.781056
-1.745084
1.681650
2.717155
12.273440
29.579099
20.960247
-11.394426
-20.043898
-7.013817
-6.247123
-9.686553
-4.227228
-2.074588
-1.989817
2.593764
3.955203
7.334399
18.884911
22.773134
6.645637
-12.941387
-14.169818
-10.654798
-14.365062
-9.993329
-5.448639
-10.099559
-5.626975
4.177817
4.812267
6.530932
13.620353
17.681107
22.756199
28.473815
16.632816
-5.846306
-11.979822
-10.441059
-15.187650
-16.449049
-14.012735
-9.852758
-5.957049
-9.242183
-10.333896
-0.723580
11.210257
15.746817
14.402610
18.214839
24.446695
16.286068
-3.699060
-16.010237
-16.960482
-15.349873
-11.390284
-7.667819
-10.295120
-12.896318
-11.740643
-8.148787
-1.353915
5.862371
10.684522
11.542240
15.637203
23.073798
21.055685
12.455789
0.452181
-16.999109
-22.302317
-8.719277
-1.482057
-8.146552
-10.830459
-8.984489
-9.407420
-3.982865
7.006820
10.635716
13.542043
24.058963
28.553280
19.714599
3.025696
-8.430473
-10.057574
-11.111311
-7.491423
-4.829808
-13.952349
-18.020841
-11.554376
-6.894185
-2.146073
5.901470
9.136885
9.501190
16.890365
16.598411
-2.630024
-17.594289
-16.658769
-10.429023
-5.005326
-5.874473
-8.203942
-4.709993
0.587817
10.154512
18.537957
19.882421
21.685194
18.607452
7.490039
-5.593634
-14.058482
-12.435074
-6.349826
0.819643
2.176945
-5.536916
-8.685785
-5.753533
-2.583303
1.472423
6.102304
13.412828
20.554661
13.807061
-7.220504
-20.153524
-15.570763
-8.009157
-7.242176
-10.120314
-11.752657
-10.276165
-3.689938
2.707851
1.899775
6.039213
16.903464
19.938805
20.873474
17.455722
-1.530340
-15.267242
-7.516608
-0.226057
-10.777586
-21.288980
-15.217787
-4.418524
0.836766
6.053647
9.698083
7.142893
9.314836
15.900929
9.881390
-3.107143
-8.624560
-10.310117
-9.214538
-1.016758
2.364205
-10.145111
-20.136424
-8.646378
9.243319
14.518085
12.542668
14.729945
17.411320
7.409937
-9.116003
-13.200861
-6.824721
-2.745522
-3.506780
-6.332628
-7.104012
-0.722524
9.135179
13.121068
15.569963
24.289436
29.857164
16.905461
-10.274580
-24.152799
-15.417313
-5.900518
-5.574174
-10.030605
-14.993662
-12.364375
-6.622131
-4.022913
1.683418
7.964547
13.667220
23.363150
27.013405
14.141901
-5.545415
-15.590353
-17.644482
-18.613240
-16.935423
-15.748213
-14.922020
-12.699082
-11.727231
-5.751613
4.552321
8.781545
13.869595
22.667636
21.759795
22.545058
33.346161
24.965608
-4.141589
-17.355044
-9.999370
-8.525531
-14.764012
-14.493025
-15.532222
-20.843543
-17.690145
-10.349346
-7.310062
-4.730327
1.299722
10.397721
18.563775
25.078421
27.369667
16.868858
-1.125251
-14.564259
-19.673948
-12.051396
-1.286293
-7.064948
-15.256201
-10.214549
-6.777601
-1.481195
9.273094
12.729621
14.488106
21.606011
30.711839
27.741402
6.040543
-14.009077
-25.019930
-28.282416
-15.197871
-3.304911
-9.039882
-13.001099
-6.219039
-3.351550
-3.430553
4.395838
13.347812
18.274800
26.755826
33.034051
24.565720
4.682773
-12.035816
-15.146246
-11.552093
-11.337609
-13.034260
-14.708019
-14.666150
-9.993913
-4.468141
-0.566813
5.570984
11.082979
17.637960
25.191021
16.262632
-2.931667
-12.327891
-15.884574
-14.474052
-8.129910
-6.394452
-6.483073
-1.246960
4.005508
0.700613
-0.568357
8.710573
13.943340
13.695037
10.186322
-2.907502
-11.819061
-10.421534
-11.164476
-15.002469
-15.504135
-8.860121
-3.510211
-8.020676
-8.274489
5.825411
20.514656
25.375202
29.746412
35.885845
26.102380
2.565968
-9.550035
-11.525736
-16.185880
-15.865193
-12.746674
-13.867336
-14.143214
-12.721555
-4.652422
9.929393
16.261900
14.340923
21.302597
33.335742
23.357362
-2.833117
-14.500471
-16.305998
-21.114877
-21.278640
-17.866596
-15.628386
-14.379591
-12.931311
-5.197853
4.894608
9.444094
10.856517
12.141750
19.722627
31.070271
26.611197
4.906025
-13.166075
-15.696848
-11.524473
-12.735834
-15.147654
-13.099878
-9.026777
-3.928856
0.153839
1.272600
4.234139
12.841431
18.944424
15.208081
2.252646
-12.395559
-14.178356
-7.309282
-8.196727
-11.866689
-5.358582
4.830088
5.880378
3.211915
2.510722
4.290108
16.271967
27.727181
18.998444
-2.845505
-16.995478
-15.397002
-8.235896
-6.856284
-11.180977
-13.492667
-8.043268
0.411874
4.579467
5.020220
8.627958
15.693038
19.080144
11.699837
-8.181716
-21.066709
-12.305705
-1.090313
-2.886889
-9.084278
-9.469550
-0.012629
12.388437
14.199707
13.100150
21.183506
22.997290
8.013316
-9.044540
-14.708646
-11.705155
-9.234958
-5.348923
0.809575
-0.152246
-2.742119
2.100890
6.704453
11.277323
19.986447
18.928681
2.819521
-14.163455
-21.061080
-16.799976
-11.174233
-9.186687
-7.829651
-10.224876
-10.917566
-5.643566
0.933573
12.265555
22.385789
22.775024
14.547470
-1.191378
-11.704874
-10.992057
-9.402278
-8.721573
-9.082775
-13.254993
-14.064790
-7.863409
-0.221077
7.807287
14.288610
17.217246
18.710691
17.029581
8.151224
-7.038689
-17.070102
-15.873878
-10.676980
-4.296248
-0.961638
-3.193513
-3.547249
0.115430
9.610190
19.978797
20.211965
21.559617
26.567525
15.462274
-7.008485
-21.365795
-22.527009
-17.614609
-13.971010
-9.412346
-9.978026
-14.409915
-5.106856
6.337580
7.239025
13.878247
23.346966
23.390915
18.082008
2.356498
-17.427247
-17.675680
-9.156955
-12.951690
-16.099392
-8.330357
-4.533625
-7.954001
-1.986632
9.530239
12.001260
14.448921
20.347007
20.214843
17.618887
11.733011
-1.861039
-14.760066
-22.483509
-19.608472
-7.154713
-7.302822
-17.238879
-13.277145
-1.325009
3.494247
4.939193
9.543677
12.044266
12.591460
18.435488
18.615172
4.675019
-8.540853
-11.949687
-12.936911
-13.486448
-9.017720
-6.863956
-11.881064
-13.843015
-7.359497
4.984606
14.656898
17.334925
21.519809
21.443928
9.390212
-2.458061
-11.372918
-17.135830
-13.424882
-8.593998
-8.969545
-10.995433
-9.747753
-1.097662
7.990055
11.361798
14.030118
18.672274
23.689615
24.882250
13.430007
-4.080688
-10.955662
-15.696040
-22.033769
-14.333938
-4.731569
-7.385812
-6.491977
-0.100991
-0.524371
3.032022
15.674298
20.280285
21.897002
26.083602
10.705513
-14.180298
-20.364428
-20.165525
-20.377673
-8.834282
-2.532665
-16.202648
-23.490601
-6.850644
9.349547
11.584343
12.131565
13.770511
18.003208
23.433339
19.233344
3.791533
-13.332093
-20.818256
-17.279853
-9.329017
-6.644310
-12.061365
-12.728916
-4.832604
3.512013
5.379137
1.550082
8.550716
24.178581
28.133285
19.481932
3.710875
-9.670984
-12.740303
-12.307091
-9.483284
-7.055824
-13.430148
-19.529035
-15.267925
-7.543756
1.013773
12.335676
16.176707
13.699253
18.376047
18.166697
2.129029
-11.666024
-13.648866
-10.927367
-9.213020
-9.702496
-10.487169
-9.197098
-1.883351
6.437561
6.761704
4.548905
6.789575
12.433250
22.120691
34.512247
34.130613
11.833061
-10.056667
-17.028181
-21.566868
-20.237988
-11.102755
-14.551544
-21.992517
-12.785296
-1.730335
2.611193
9.146458
11.793648
10.762328
17.507630
30.009396
33.310974
17.397837
-2.736346
-13.886131
-20.696110
-20.876465
-18.595191
-18.473945
-15.167248
-12.946274
-11.146740
-3.448792
3.635340
3.959527
4.102432
7.984057
15.891106
30.681745
32.075283
6.386133
-15.040363
-16.255729
-15.278638
-16.342277
-15.118459
-16.611784
-18.554186
-10.808349
0.882974
4.366476
3.715405
7.680744
16.188779
24.354759
27.172986
16.729998
-4.265247
-14.146324
-9.557334
-7.818449
-9.039952
-8.745047
-9.447680
-6.302439
0.012221
5.366333
11.798924
13.292875
12.876162
22.972592
28.550783
13.588440
-7.289671
-18.974212
-19.617649
-13.133121
-9.228956
-12.488178
-15.996911
-12.448313
-5.239475
-0.790389
4.179968
10.621886
16.316090
25.101986
28.745158
15.485725
-3.892765
-14.088233
-15.804744
-15.062535
-14.335348
-16.433803
-16.353360
-8.542668
-5.662272
-6.342150
5.084444
17.142339
18.930503
21.628248
28.874450
26.306948
6.565928
-9.080864
-9.241095
-10.800446
-15.385342
-14.630071
-11.703083
-11.072757
-10.832813
-4.010870
4.117718
7.761834
10.606084
11.072186
13.839661
13.278744
-3.905341
-18.034340
-13.808589
-5.908580
-3.782890
-6.617538
-9.971039
-11.156838
-8.358442
1.242392
11.000581
12.020756
10.135603
20.768816
32.792782
21.942215
-0.878513
-16.957778
-24.818997
-21.514460
-10.417485
-6.585415
-11.834452
-11.891133
-4.728469
1.831442
6.097873
7.912072
12.465379
23.310300
32.107028
28.986045
10.564986
-10.253576
-16.592646
-11.964092
-8.284795
-11.820895
-17.462858
-15.115663
-9.098492
-3.109535
5.019086
9.899974
12.326673
16.773111
23.642124
28.421324
17.017614
-4.315602
-14.496279
-17.626347
-19.473030
-17.222845
-15.588268
-13.910464
-11.471187
-9.980753
-6.031785
0.045443
5.758970
10.696630
15.344120
21.964042
25.506385
11.461544
-16.066588
-28.411166
-17.511741
-6.097366
-5.363025
-7.600719
-9.740984
-10.669880
-5.914033
2.712962
11.345102
18.733987
20.618656
14.492307
3.708947
-9.109469
-20.253131
-20.389901
-8.205301
1.962336
1.973864
1.637410
4.472704
6.921485
13.771880
22.089890
26.537173
23.086441
5.657351
-10.321574
-12.971028
-12.763975
-9.678266
-3.772556
-6.572019
-12.204518
-5.118013
7.151603
10.949613
15.822752
25.247520
22.439241
6.198197
-9.112195
-18.796138
-22.923670
-13.952408
-1.316641
-6.890933
-16.157316
-10.734432
-3.759123
-1.550997
3.941614
14.906063
23.914577
31.284980
35.837185
21.077575
-4.523967
-20.096539
-27.505412
-27.028251
-20.440257
-19.173184
-22.956751
-19.515986
-4.528169
6.289476
4.706742
7.056286
18.322322
29.670950
35.334525
25.755254
6.185265
-5.965925
-9.399342
-14.081435
-20.895997
-21.405788
-19.816545
-19.196961
-13.224509
-7.488091
-2.472626
5.750694
13.123278
17.621801
20.725244
26.922436
29.600078
21.547157
8.688277
-7.976093
-22.720652
-23.774199
-15.579222
-11.645807
-10.662983
-6.941979
-9.122011
-11.546224
-1.839610
5.616951
7.439050
16.485867
26.473795
29.955540
21.828238
0.040419
-17.986462
-20.849722
-15.297649
-11.169608
-10.621877
-8.169780
-4.634117
-3.460836
-2.492718
2.085890
8.431700
13.006131
19.163519
18.233034
-0.897760
-20.094246
-21.327910
-14.039039
-8.458123
-3.127191
-0.127325
-0.847933
-1.051226
-0.058120
5.499966
14.094938
15.330932
16.310510
24.452955
22.210195
2.764713
-13.907008
-17.095447
-15.323238
-11.888193
-6.611204
-7.355083
-10.812720
-2.895830
7.693947
5.697391
5.104082
14.508084
19.368085
17.838553
10.822924
-7.291909
-21.012311
-14.633951
-6.393215
-10.596521
-10.753475
-5.818369
-6.198219
-2.645424
1.172014
-3.411089
-1.328062
15.843475
29.601678
21.057641
0.678716
-13.006481
-18.257212
-15.247783
-6.872770
-0.491946
2.285019
2.017534
0.498018
-0.094260
2.948981
8.207048
9.549876
10.496075
10.033435
-0.079804
-12.393300
-16.366900
-13.188669
-9.223284
-5.049607
0.291886
0.779591
0.369407
6.054393
12.928827
15.951974
14.347398
13.784772
14.696799
8.895140
-5.040396
-19.513767
-21.558125
-12.664890
-7.303692
-7.217833
-5.451613
-0.621583
3.762106
10.884523
18.939007
16.291137
11.466065
11.961539
1.946383
-15.348279
-20.042994
-14.067048
-9.899895
-7.430413
-4.742705
-7.072309
-6.416884
2.726680
5.728643
4.770850
11.974438
21.726876
21.869883
5.889484
-12.852109
-14.641126
-7.194051
-7.637650
-10.556626
-8.879226
-6.705476
-2.720816
1.762443
4.047557
8.040405
11.944990
14.923909
18.460022
10.653563
-10.266613
-17.737311
-5.903610
-1.503172
-8.678072
-11.969049
-9.970848
-4.056510
3.429606
3.913700
3.233020
12.003492
22.459661
23.174576
9.222053
-13.433144
-24.678390
-17.595895
-7.401046
-5.250201
-9.228983
-11.151216
-5.028150
4.892796
10.362926
9.743842
7.570084
11.817720
21.483852
19.529092
2.094431
-13.738017
-15.875665
-7.006892
-0.014813
-2.104463
-8.759370
-9.332531
-1.292037
2.036776
1.649801
8.194388
14.204250
15.931169
19.185351
18.542584
4.290442
-14.397069
-18.960167
-15.418197
-15.144643
-12.577842
-10.182632
-8.755249
-2.010581
2.859536
0.473531
-0.839449
6.880584
15.833932
19.014582
21.180014
14.498589
-1.662748
-9.687305
-13.284991
-20.703621
-19.178748
-10.344273
-7.962293
-8.704252
-6.321156
-1.300417
4.160114
11.549139
20.256762
21.903582
20.175017
18.083008
5.774377
-11.396865
-19.106745
-15.783561
-9.947547
-7.002094
-4.345046
-4.822273
-9.547828
-6.760531
1.344742
2.850783
5.162281
11.997457
19.163696
24.569802
11.396609
-15.543221
-22.608473
-11.635997
-7.600125
-7.775718
-4.282527
-3.885246
-3.773319
1.498113
3.754056
3.014743
8.710746
17.563663
24.666371
26.114470
14.059414
-1.666736
-9.345020
-12.789766
-12.102633
-10.298023
-13.436099
-15.800275
-10.490934
-2.396275
0.127522
3.235668
13.002663
21.793031
25.354351
18.715698
1.500907
-11.467987
-16.498006
-18.052611
-14.102965
-11.093312
-11.433099
-7.902239
-5.428067
-7.526167
-4.328274
5.218862
11.689920
14.789434
22.556867
30.434942
21.339506
0.074644
-13.587253
-20.978800
-24.078733
-15.843431
-5.604799
-4.855597
-6.757549
-3.464972
0.078716
3.243683
10.246214
16.262946
20.936434
26.565582
22.391999
1.677294
-19.281022
-23.674480
-16.903333
-7.081713
-0.730733
-6.618821
-14.403252
-8.903361
0.776794
3.106060
7.439007
18.444114
22.952939
15.649496
5.778075
-3.243870
-16.876854
-26.882306
-17.884307
-1.464390
-2.100130
-13.557716
-10.527089
4.740122
11.820935
9.041480
10.878918
23.763510
27.568129
10.052186
-6.546565
-11.968568
-14.176484
-12.674078
-8.640160
-6.303965
-5.929976
-5.319279
-2.117675
4.466580
11.215920
12.963849
16.754485
27.777467
27.376983
5.409122
-16.526553
-21.055251
-17.501622
-16.515126
-15.668952
-12.998543
-9.865764
-5.406206
0.454462
5.825948
9.548606
13.752524
20.954217
24.746807
13.915788
-8.448218
-19.806958
-13.626023
-10.139791
-11.943463
-9.790134
-9.116382
-9.068408
-3.132617
4.537862
10.775385
18.785612
27.012483
26.907946
14.067988
-4.755134
-17.825326
-18.513779
-12.136440
-8.266349
-7.534996
-6.482052
-4.952031
-1.135775
6.773619
14.330793
18.124898
19.014273
13.328457
-2.227232
-17.289759
-19.132491
-10.963905
-2.797214
-1.333162
-5.961330
-6.431242
-1.436087
2.799119
6.886347
11.927921
20.912637
28.436979
18.877842
-4.612137
-20.457854
-19.854527
-15.434928
-13.654399
-11.570815
-13.078191
-13.973087
-6.374879
3.866702
8.050756
6.554809
9.737201
22.549544
29.737865
16.144130
-6.696416
-17.066918
-15.084097
-12.392399
-8.823312
-5.787995
-7.291769
-6.030519
-0.815272
1.032251
3.295052
13.722236
24.785779
23.916991
13.363188
0.064641
-14.171373
-22.290044
-16.739065
-6.205358
-6.383191
-14.192777
-13.750047
-5.251654
-0.657481
1.317486
8.859552
16.976778
23.940201
33.001865
27.129587
4.052600
-14.405030
-21.784727
-16.015761
-4.150734
-5.273137
-16.752424
-16.534926
-2.564893
2.112200
1.787903
9.923633
14.461457
20.968496
30.679837
20.935215
-0.587778
-11.159025
-15.285170
-18.738879
-15.015203
-13.394718
-19.761703
-16.402632
-4.642422
-0.275013
0.207014
2.599297
9.994028
25.208250
38.309957
28.997569
-4.033103
-23.655217
-13.658261
-7.141228
-10.672186
-5.411482
-3.584072
-8.092702
-4.165934
-2.764732
-7.566878
-2.582663
10.299231
20.701253
25.788833
16.168280
-4.776003
-13.086535
-9.539839
-12.151039
-17.910371
-11.833259
-1.115891
-3.621595
-7.347837
0.119719
9.892033
15.025392
11.793909
10.092578
17.607607
13.247209
-8.825636
-23.590662
-18.799066
-3.904130
4.732316
-3.694728
-18.045144
-12.203796
9.205322
17.628489
18.882664
27.578211
34.777339
33.044173
11.856749
-20.377820
-27.292292
-11.706502
-5.592761
-13.134765
-18.964064
-12.509594
-3.747390
-2.063373
4.019611
12.503361
15.699880
25.623155
27.518622
0.683833
-22.611643
-21.349308
-16.034754
-14.574979
-12.155365
-11.528379
-14.905264
-14.591809
-8.858877
-3.945829
9.551338
27.286867
24.438977
19.996630
33.066516
26.421507
-5.306317
-25.496429
-26.521265
-19.682535
-13.557861
-11.145151
-11.915278
-9.700388
-0.826921
2.576625
1.410972
7.832497
18.650579
28.716253
33.426053
25.912924
4.483211
-19.415077
-25.449537
-16.659301
-11.352018
-10.886588
-9.484969
-5.945645
-2.616536
-1.144845
1.309804
6.661497
11.860681
14.781597
19.732468
17.497140
-1.487817
-16.109621
-17.903990
-16.256545
-8.620268
-4.398841
-8.946055
-9.461683
-3.409752
3.107496
5.357057
6.436433
16.557499
31.705693
29.938055
5.585173
-16.817557
-21.087961
-13.524802
-5.424053
-6.082494
-12.182921
-13.820336
-6.279619
7.863895
15.621744
13.603669
15.868214
27.482951
32.667762
15.814561
-9.167825
-19.884066
-18.698873
-13.883927
-12.869430
-18.071654
-16.643380
-8.943379
-7.452461
-7.177500
2.242075
12.380170
13.995647
21.370693
37.189102
32.855644
5.849699
-12.103165
-17.011792
-23.368629
-23.584382
-16.363897
-15.057000
-14.777669
-9.384473
-5.438212
0.419577
7.926440
9.260278
12.212612
21.484551
30.619101
36.780459
26.757494
-2.150992
-21.371622
-19.763581
-12.851868
-9.073725
-11.608852
-21.544536
-24.476379
-8.328472
4.509433
-0.354363
1.242172
11.620706
12.848633
15.495690
25.805318
22.623660
0.162108
-19.668205
-22.364254
-16.300859
-12.450519
-11.924981
-13.931670
-14.559672
-8.153242
1.954541
8.217405
11.233644
18.016508
23.676781
22.224285
24.860274
27.954886
13.441041
-10.254974
-21.031101
-18.721152
-17.169848
-18.698411
-19.070732
-16.177674
-9.688224
-4.304305
2.162486
11.321204
14.759737
15.691535
21.547559
27.225308
22.152554
5.591060
-8.212134
-14.818856
-18.793985
-16.985294
-13.246448
-12.379006
-10.249251
-8.632838
-6.422342
2.126246
8.259123
7.264997
10.735228
19.030487
24.965536
26.055671
11.808050
-13.738011
-24.726519
-17.726522
-10.737451
-10.833760
-15.084873
-16.464859
-7.604626
4.927370
7.702363
5.583518
10.878476
17.920526
19.728027
21.097997
17.505216
2.083490
-12.971128
-17.407673
-15.954007
-12.392486
-11.031923
-13.208979
-9.407910
-0.421156
-0.008728
-4.845111
-0.486390
10.243083
19.699122
25.693632
17.846646
-1.306443
-10.850244
-11.243115
-14.678760
-16.016829
-9.805742
-3.367244
-3.516883
-7.549462
-9.771660
-3.045600
12.898046
23.747027
25.142585
24.108797
19.200747
7.913318
-6.718968
-15.573228
-14.792226
-12.626808
-10.458266
-7.279996
-7.356142
-8.407431
-5.031673
2.708045
8.608722
11.996491
18.459338
25.409672
25.095109
12.011490
-8.377180
-19.124514
-16.392418
-10.925878
-7.663482
-10.850056
-21.203309
-25.297969
-13.586381
5.266756
14.832112
14.676117
19.121929
25.674418
23.054593
17.556790
11.199279
-3.588177
-17.056222
-18.493658
-15.253381
-16.395524
-18.851879
-12.266661
-0.250917
4.883821
2.986734
0.904478
7.744619
19.555870
17.121750
0.703218
-10.244226
-9.823870
-9.438352
-13.099086
-14.164010
-10.653751
-4.492255
-2.195190
-5.256547
-1.359873
9.466297
16.027943
19.478183
22.471900
27.355593
31.715730
19.905401
-4.697990
-17.793696
-15.507537
-11.809974
-10.228162
-12.210976
-19.736640
-19.496362
-7.353880
0.230968
0.684217
6.278439
15.833013
19.773281
24.034819
26.976164
8.544039
-13.091454
-12.671790
-12.788580
-18.520526
-13.785339
-11.149593
-16.418053
-14.694319
-7.010250
-3.810401
0.416621
10.228695
16.122515
18.353810
26.300743
32.658300
24.200515
3.756983
-15.451891
-21.226946
-16.284436
-14.626288
-17.584365
-19.446654
-18.612769
-13.746005
-6.228866
-0.267328
2.694364
9.899709
18.933534
19.662365
23.362208
29.922599
14.520388
-17.110962
-29.631087
-17.917870
-10.599307
-10.951673
-4.486480
-0.636924
-2.370159
0.177287
6.263720
11.855314
12.883115
14.597257
23.696568
25.588795
6.668713
-16.035299
-20.320344
-15.108019
-13.260476
-10.473997
-9.553403
-10.842249
-8.075800
-5.548257
-2.620042
6.973116
17.783000
24.450743
30.439538
31.875271
18.348113
-3.215686
-14.115217
-18.244088
-28.244614
-27.727865
-11.099662
-6.791431
-13.815698
-9.095506
0.668587
5.730284
10.798939
16.473260
21.546457
26.464043
25.687121
9.160030
-14.379317
-22.324036
-15.080293
-7.146662
-6.267145
-12.423485
-14.963520
-8.658737
1.480936
8.079471
8.558660
12.455518
20.772135
25.139495
16.318236
-7.444588
-21.716507
-17.756594
-12.767707
-11.358639
-13.208524
-11.348817
-3.586149
-2.080455
-1.114284
6.902878
11.796002
14.161999
26.049825
35.570727
20.078318
-1.852417
-9.830203
-17.225292
-19.761874
-13.191897
-10.018730
-7.773807
-7.047026
-7.679710
-3.144304
1.958129
7.186640
15.744855
23.148266
24.965549
21.149420
9.203843
-13.429385
-29.577509
-23.560103
-12.357129
-9.769672
-9.207490
-10.509921
-12.092798
-7.295057
0.010100
5.545633
11.223927
16.319397
21.549631
26.771512
21.207999
2.491585
-12.714663
-15.284374
-11.143216
-7.640074
-9.711741
-13.563089
-12.195565
-7.312663
-3.490264
1.795174
12.932574
22.811505
25.071314
19.027519
2.869773
-12.582416
-17.412199
-15.285432
-9.941495
-6.233543
-5.145316
-4.101184
-5.379358
-7.571241
-3.419185
9.057766
18.644447
22.405673
29.513273
28.679464
11.549253
-6.669028
-17.920575
-20.997341
-16.589962
-12.522088
-11.629358
-10.774307
-9.870750
-7.479140
1.811370
12.296380
15.167810
15.432995
19.571269
26.448403
18.549037
-8.963258
-22.559345
-16.051197
-13.682939
-11.368741
-9.044535
-17.788436
-19.262634
-6.279815
0.553003
3.633017
12.454334
18.003479
20.385765
25.634226
26.602202
13.941187
-6.837873
-18.794814
-19.170124
-18.400677
-16.995433
-11.393715
-5.797975
-5.222236
-6.602068
-6.431631
-2.508806
11.032639
23.814029
23.377708
22.922110
20.665966
1.789775
-16.594459
-18.621277
-10.026125
-3.409841
-9.080079
-15.058937
-10.519079
-4.090190
-3.677107
-2.286537
8.138025
15.223005
18.218513
22.627976
13.151661
-5.636637
-16.065987
-17.948185
-15.401805
-11.186730
-6.787876
-4.838698
-5.796683
-3.816567
2.348513
10.899401
20.685337
27.676474
31.541532
28.605745
10.994096
-11.131773
-17.691119
-12.469532
-11.244678
-11.980187
-13.010074
-13.712114
-9.808792
-8.088195
-6.157162
-0.117985
6.259256
17.444665
29.346383
30.388679
15.640470
-6.027665
-18.259906
-21.142455
-19.727673
-13.751013
-6.962804
-6.312882
-13.612258
-13.290487
1.059664
11.538806
12.587515
13.081165
18.999637
29.448606
29.191132
8.297512
-15.019942
-21.676537
-16.125248
-8.347836
-7.548199
-14.625207
-16.129322
-10.525691
-4.891102
2.656121
8.518106
9.480378
14.686791
21.690631
16.205045
-1.609049
-14.089757
-12.552392
-11.894629
-12.235882
-4.702928
-4.492282
-11.635445
-9.639121
-0.259684
10.452108
18.620515
21.184750
25.529865
31.276873
18.107280
-10.770558
-23.664689
-18.458334
-13.511881
-8.573747
-5.171052
-10.471930
-12.120077
-1.961099
4.878031
4.365721
9.153526
19.297191
25.533253
24.264295
12.788614
-3.778498
-15.390009
-21.624120
-18.759328
-8.883119
-6.503369
-9.607608
-8.433450
-0.622375
13.268143
26.486428
30.970811
17.736769
-6.147198
-16.304447
-14.313728
-15.021596
-12.976872
-6.812011
-5.203866
-7.561173
-8.725348
-3.460713
3.181975
2.629973
5.878403
20.049741
30.809612
20.578940
-4.240695
-15.578983
-10.455293
-5.982871
-7.664730
-12.316039
-13.058024
-10.839969
-7.810083
-3.101381
-0.112426
6.183070
13.603912
13.413568
9.433538
0.626815
-8.932032
-11.681886
-12.121582
-8.039026
-2.185546
-0.988189
5.782380
17.159652
20.435116
22.719729
28.747036
23.029149
5.019618
-8.722255
-15.565420
-18.281749
-13.794081
-7.080041
-7.252524
-11.784953
-11.187763
-6.099948
-0.805807
7.120684
15.385132
21.812465
26.813288
21.070147
2.730992
-13.305674
-19.822811
-20.322249
-16.976447
-12.804252
-11.317921
-13.073944
-13.240895
-7.587325
0.278020
7.964787
13.264404
14.261436
19.025315
22.973239
9.921688
-9.566084
-18.942020
-19.306613
-11.963083
-6.057790
-8.677018
-9.295779
-4.003020
2.562496
5.840853
2.276544
3.813574
19.648903
34.252917
29.993499
8.209751
-11.441874
-18.913964
-21.315718
-16.550531
-11.470769
-16.648119
-14.651243
-3.221995
-0.049848
2.306910
9.654460
13.312307
17.039742
23.307406
25.531466
26.789197
33.489736
35.870846
19.797035
-6.924957
-21.843314
-21.758164
-21.760237
-23.206197
-21.890967
-22.511804
-22.517878
-16.968123
-8.431677
-0.737010
2.991486
4.540509
6.964843
10.659574
17.440956
27.226478
33.105288
21.450616
-2.022934
-13.855461
-14.601801
-15.679531
-18.567429
-19.952654
-14.540692
-11.336328
-17.180070
-18.542813
-7.922117
4.612141
10.104936
12.838633
15.569707
19.158345
25.246675
18.934421
-1.172288
-11.463990
-9.383191
-8.062770
-11.035375
-15.386200
-13.791350
-5.651598
2.306704
6.247857
6.665327
9.611631
14.891640
18.811587
22.895874
16.000064
-4.776778
-16.127259
-15.256928
-17.278879
-16.497005
-9.911756
-7.540997
-8.367690
-6.917547
-0.046612
8.754256
11.690181
14.980091
20.050458
24.226004
29.165518
16.485515
-10.066275
-15.946365
-7.889963
-13.913476
-25.980187
-24.512232
-14.378588
-7.017007
-0.714508
3.628101
5.730937
12.718774
23.195199
30.441271
25.569035
6.937031
-9.918942
-15.340943
-14.186985
-15.733815
-18.179302
-12.043939
-6.157808
-9.033929
-9.989227
-0.598359
11.569748
14.950168
13.433841
15.415699
19.027185
14.007854
-4.089711
-17.666623
-18.329767
-13.552860
-5.319458
-6.861020
-13.896259
-5.998018
3.239070
8.958591
18.943416
18.440441
16.091645
19.570885
8.086178
-9.084672
-14.995884
-17.651491
-16.856707
-6.937613
-1.430629
-10.457278
-13.931828
-2.883672
8.341473
15.730248
17.710693
19.092113
24.220816
19.730940
2.881818
-13.263365
-17.815096
-14.354356
-13.240955
-11.403322
-8.323882
-6.958590
-4.917366
0.343191
9.472324
14.433757
20.229129
24.906031
8.571487
-10.774867
-14.433918
-15.006475
-13.903914
-9.567469
-7.857092
-10.380863
-10.744026
-2.992902
7.515670
13.510040
14.867284
21.437760
30.898881
19.546174
-6.320721
-16.708039
-16.262616
-16.812523
-12.014648
-8.516452
-8.627518
-2.598852
3.945081
8.559713
15.436510
20.935024
25.462236
21.435652
-0.914076
-20.567750
-20.969236
-19.695360
-20.803569
-14.173610
-8.439179
-8.434885
-5.989138
0.950745
8.172597
12.271172
13.785504
18.545771
24.611373
16.156030
-5.361094
-18.256904
-17.718986
-12.224556
-8.037497
-9.924966
-11.953285
-7.539584
-1.198583
4.810875
11.277610
14.877870
15.242574
18.522050
23.325567
16.042477
-2.722689
-15.250346
-16.735314
-12.655769
-6.734326
-4.902043
-6.733861
-5.627105
-2.041657
-1.362986
0.078366
10.065595
19.014756
17.842406
13.520904
1.687569
-16.574054
-22.524575
-15.848832
-7.285990
-1.427082
-0.047728
-3.959156
-11.713411
-9.427410
5.379184
12.698679
11.679310
17.788091
27.617541
27.414364
11.875579
-10.606913
-20.897020
-15.781147
-11.665085
-14.159050
-17.786296
-18.376884
-11.966509
0.437139
8.400973
8.805159
10.972129
16.327624
24.258529
30.200248
18.963814
-6.125032
-22.481921
-20.481695
-14.220766
-12.875133
-8.565680
-7.040495
-11.826547
-8.215265
-0.691009
2.314160
8.984343
16.514194
20.256935
23.926195
21.373538
7.800449
-9.154720
-22.226888
-24.178944
-13.998421
-4.813552
-4.442409
-7.028472
-6.653575
-4.337432
1.041031
9.968608
12.521388
10.938501
16.518794
16.727596
2.933081
-9.461354
-15.706367
-16.911202
-9.348672
-2.084134
-4.323107
-8.837816
-4.580735
5.027871
12.521150
18.749232
18.889234
16.653239
21.697673
18.126404
-0.943032
-13.537836
-14.800056
-16.978168
-14.051556
-3.347453
-4.621812
-16.441962
-15.479740
-0.386911
14.558985
18.194373
12.019490
14.644601
24.405937
15.883154
-9.249764
-28.088987
-30.582112
-18.410864
-2.979682
-2.224916
-13.864154
-14.155488
-2.087562
6.626460
12.475067
14.206871
13.462924
21.025979
25.414572
10.192857
-11.045378
-18.606362
-16.061148
-11.576354
-5.900489
-6.384965
-12.375458
-10.230423
-2.585654
-0.466046
2.551060
13.366996
23.118959
25.848204
20.724928
6.131846
-9.249211
-17.368703
-18.179456
-11.716512
-4.743737
-5.798347
-9.634634
-6.012953
3.546381
10.830639
11.376563
13.350613
24.908345
28.506521
11.578451
-7.454489
-17.479615
-21.914672
-17.124476
-6.089268
-4.254124
-14.713825
-15.537963
-1.114372
4.242167
3.137233
11.342928
19.878294
27.045514
33.115363
21.847338
-1.738404
-12.557940
-11.957046
-15.472348
-18.583005
-17.404585
-19.645982
-21.501494
-16.593317
-9.114267
-2.037386
5.764697
14.181159
18.096533
24.290624
37.084432
26.547596
-4.764083
-18.067080
-18.398621
-18.542926
-13.887762
-10.607553
-13.913250
-16.254831
-7.212944
1.913944
1.480025
7.508590
20.831443
23.090998
17.482608
19.308045
15.593646
-3.937725
-15.092241
-12.308132
-11.285856
-8.785322
-5.019601
-8.265456
-12.256578
-8.230023
1.941151
8.382825
8.618625
13.321415
24.115812
29.317524
22.535260
8.588877
-6.724373
-17.968264
-18.304253
-14.679502
-16.087208
-16.230917
-14.641465
-15.639263
-12.477375
-2.306377
7.631545
13.441767
17.270185
22.615056
29.710989
30.982178
16.911668
-7.541655
-21.703129
-19.141003
-14.496835
-14.279632
-16.957358
-18.859739
-13.630871
-7.218660
-5.253212
-1.603710
5.252395
12.155943
18.852827
23.954035
24.919571
22.458855
13.700845
-3.264615
-17.070189
-20.063010
-16.967357
-14.949970
-16.966025
-15.191081
-9.167912
-5.760409
0.048640
7.720164
10.572021
10.181962
11.449584
17.914557
20.311175
6.447770
-10.705412
-13.691169
-8.464712
-6.165705
-6.992207
-2.717988
3.127484
-3.206934
-8.148035
3.431160
12.286197
11.940618
19.351981
24.851543
9.702173
-10.366722
-15.449317
-12.661650
-13.302252
-14.339504
-9.755215
-5.004515
-4.066537
-1.637586
2.909164
10.075328
17.103544
15.873487
15.500203
23.400334
17.221852
-6.463052
-17.389010
-16.572178
-17.922978
-11.392278
-5.134482
-10.828084
-14.887613
-10.696242
-2.595501
5.408089
9.915966
11.880642
15.554325
23.690174
25.367913
11.366322
-6.015246
-14.308191
-13.655651
-9.430952
-8.624754
-13.262563
-14.974575
-9.456632
-5.760573
-4.237287
2.206353
8.405175
10.231770
14.747791
24.871399
24.698692
5.366018
-10.769168
-12.327483
-12.788289
-15.920094
-15.838000
-12.456506
-9.806362
-5.469383
2.608843
9.989404
15.308813
13.689981
11.103631
19.928490
17.362241
-7.173786
-23.044606
-19.184969
-10.414011
-7.932086
-7.158379
-3.066019
-0.479723
1.101092
2.399871
5.485339
10.067751
14.113055
22.329844
26.881941
18.797489
0.901700
-14.566924
-14.706851
-14.703466
-19.663299
-13.347698
-8.337132
-11.534845
-8.665497
-1.878202
2.814863
5.939485
9.436370
15.987039
24.310992
26.693690
13.679548
-5.995030
-15.974422
-17.990843
-16.650245
-12.289084
-9.253186
-9.121186
-9.028335
-5.551861
0.753898
7.795267
14.687210
15.193485
14.262178
24.532777
31.162118
17.990356
-2.746937
-16.016453
-16.651840
-15.952211
-23.416233
-22.793232
-13.381937
-11.747413
-10.737536
-3.330740
2.743407
7.126409
11.647740
17.102102
23.091402
17.905772
1.073554
-9.874321
-11.919558
-11.788957
-7.880760
-2.589391
-2.246779
-5.338589
-7.639415
-6.501263
-4.496585
-1.512163
9.330592
16.790741
15.758568
25.906501
37.230869
21.798135
-6.310928
-17.198866
-12.972140
-9.387537
-9.233753
-9.461224
-10.898132
-15.669894
-17.313684
-6.008611
6.629255
2.138708
-3.080738
11.841214
29.912554
28.709207
9.494985
-9.766358
-16.169219
-15.466675
-13.424134
-12.161030
-15.508740
-15.749042
-9.071339
-6.867535
-6.587242
1.574624
8.599764
9.690179
16.470534
31.875325
40.787339
27.338174
1.759993
-11.599585
-13.933699
-15.142564
-10.484015
-5.425064
-8.894360
-14.873872
-18.772224
-16.746355
-5.138472
6.781433
12.158003
18.646344
24.449313
17.192012
2.231282
-12.065435
-21.763392
-15.387534
-4.364015
-6.397784
-7.395058
-1.751119
-2.670913
-2.134543
8.648575
13.993003
11.708406
18.609047
28.749941
20.380280
-3.544511
-16.712299
-12.148265
-5.537876
-3.715850
-11.085564
-19.584296
-12.074957
-3.476764
-1.937992
7.529435
17.991388
21.600666
23.397209
21.932225
9.173809
-11.787542
-18.358172
-11.878411
-13.059845
-16.111267
-14.530503
-12.512947
-7.495907
-3.221319
-6.130182
-4.877733
10.789862
23.106134
24.321531
27.925923
22.407864
-0.894367
-16.857000
-15.155055
-12.555091
-14.509508
-11.560018
-5.091622
-8.322672
-14.192931
-6.770622
3.094880
10.100125
17.648470
15.897650
13.987618
18.675285
12.264212
-6.684794
-20.524524
-17.556794
-8.160040
-7.459183
-10.817476
-10.068155
-4.074723
2.260851
6.085314
8.771657
10.491855
19.395047
31.537542
27.420838
6.035012
-16.103046
-22.477605
-14.847113
-10.720530
-14.234690
-15.537031
-9.569561
-4.332276
-3.342075
3.339737
11.685249
12.292610
17.717578
31.348490
26.794841
1.314228
-14.050536
-15.570654
-16.502375
-14.568311
-13.621291
-15.583373
-11.244616
-5.387656
-8.892274
-9.484167
5.584075
19.512729
22.120180
26.791346
33.122156
18.220778
-11.604072
-19.653241
-16.994991
-22.547588
-15.443051
-2.580574
-3.449588
-9.473030
-5.762212
6.547264
14.516320
17.856735
17.106900
14.770562
13.424040
-2.285361
-22.458061
-19.631692
-4.471084
-0.555207
-3.439424
-3.444591
-6.127454
-4.013701
6.807062
8.685406
6.368951
13.279033
21.903275
20.441765
4.424750
-13.332289
-19.714915
-16.655471
-11.402502
-13.320617
-17.283935
-10.492987
2.180480
7.361404
3.155194
3.745275
10.579851
12.439714
16.792373
19.324220
3.308629
-14.661653
-12.690772
-2.627911
-4.295648
-11.008895
-9.718523
-7.248764
-6.831102
-1.993897
4.385933
7.804455
14.422236
23.110591
14.810712
-6.490715
-13.373514
-9.738570
-12.629242
-12.263636
-4.869324
-3.114629
-4.140411
-3.348912
-0.966473
8.643742
21.001487
26.643588
21.071887
6.509353
-7.498263
-13.958470
-11.722307
-7.862458
-6.957134
-6.520612
-6.722781
-5.927241
-3.015211
3.752178
13.761599
20.680345
28.326384
31.616640
13.442805
-11.732011
-17.490171
-12.318844
-14.763451
-18.943272
-15.884161
-10.440646
-6.588388
-3.468474
2.533474
10.787144
14.804328
17.468915
20.724010
13.034620
-7.187844
-22.370126
-18.358367
-6.236737
-7.042314
-12.660948
-7.602926
-3.499140
-4.789545
1.220813
11.431101
16.641495
20.687669
22.809597
10.921362
-10.131794
-16.931264
-8.081827
-1.438616
-1.876221
-5.283309
-8.003969
-8.693889
-5.377572
1.008719
5.057893
13.944294
24.401497
13.699552
-8.783179
-16.599545
-17.529459
-21.098650
-14.434863
-3.210836
-4.383387
-5.804009
3.204862
8.848705
13.422564
23.919040
23.541694
6.040863
-11.424827
-16.223536
-13.107305
-6.346986
2.713506
3.920246
-1.223211
-1.513331
2.782349
9.358480
19.538003
26.564955
18.394642
0.185526
-12.955442
-20.009656
-19.474469
-8.373866
-3.895167
-13.621037
-14.706404
0.592709
13.070332
19.660806
27.805744
25.853544
11.658618
-1.199161
-11.707830
-18.168638
-16.267393
-10.424823
-8.234324
-10.763059
-7.894229
-1.438612
4.571594
17.177003
27.023770
29.073588
26.482180
8.714563
-14.155458
-21.707158
-20.443080
-18.879731
-18.731971
-22.383546
-21.861384
-16.430651
-11.961622
-3.744960
5.292454
11.169537
17.559805
24.906321
35.968797
42.630044
27.625068
-0.250861
-15.263600
-16.035031
-17.738372
-19.144011
-16.722380
-18.440302
-20.724225
-14.120498
-6.132198
-4.956367
-1.063743
9.473214
16.896508
23.214249
31.522481
33.731124
24.739983
5.999061
-12.422944
-21.191387
-18.432318
-11.715318
-12.622492
-13.083887
-8.164667
-9.197558
-10.938462
-4.800173
2.842351
3.143676
1.648005
12.557251
25.225415
23.993780
10.858577
-9.054648
-18.236455
-9.717826
-3.363539
-8.303207
-13.817307
-10.892129
-4.050226
1.867598
6.448610
7.985098
13.688013
24.118528
21.570501
0.303989
-18.099968
-18.648074
-13.512064
-8.092272
-1.803332
-3.241652
-5.826751
-2.722947
0.400456
5.052194
11.308829
16.120957
23.173676
30.904441
22.781814
-4.338262
-21.312301
-17.365026
-13.642029
-14.040206
-9.855509
-5.364957
-5.759452
-4.494490
0.696212
4.284187
9.618999
15.915266
20.207412
24.162488
15.591448
-8.634172
-24.679401
-18.641081
-8.164445
-11.390629
-17.490161
-13.652849
-9.520728
-9.776760
-5.496265
3.382526
11.935334
20.434405
28.195554
26.849351
11.380661
-3.842963
-9.766972
-14.639379
-16.251535
-12.339860
-10.167699
-6.416687
-1.199289
-1.588041
-1.016732
5.449498
9.170359
7.107429
8.860911
14.390066
11.577571
3.909014
-3.345645
-14.783665
-16.133328
-3.669676
-1.062302
-4.685972
-0.314733
1.656176
-0.912758
1.197888
7.091817
15.479901
22.305788
13.820180
-4.429116
-16.391364
-19.958131
-12.299762
-2.739393
-2.675926
-1.855358
2.379478
0.903698
-2.316213
4.792743
15.172911
17.669000
19.719651
14.000406
-3.935121
-13.788841
-14.628497
-12.545665
-5.632440
-2.791261
-8.227124
-14.231620
-11.346799
0.285223
11.169395
16.796822
18.680735
18.371365
11.928523
-4.000603
-19.362741
-21.047781
-11.095496
-3.001550
-2.369707
-4.999766
-6.567136
-2.535393
3.129451
3.051409
4.928157
15.702495
22.217634
12.226244
-3.143421
-11.298193
-14.243896
-11.843082
-7.047487
-8.148941
-10.279812
-6.484720
-2.316553
0.594945
8.844550
17.085284
16.358322
14.848258
18.238586
11.562070
-8.517400
-18.212089
-12.506220
-7.623480
-3.424817
0.003769
-5.015763
-9.873891
-3.771507
5.661320
10.239205
13.163373
16.251596
15.570746
6.326318
-6.492158
-13.462663
-13.960057
-7.606262
-2.993618
-9.100652
-11.065254
-3.403837
1.196803
4.837238
12.494173
18.299894
23.334388
27.173077
13.757293
-12.492722
-22.140535
-16.329114
-13.332279
-10.965969
-11.862452
-16.172889
-11.352972
-1.646507
1.598138
-0.755785
0.733684
12.057211
24.134835
27.155452
19.017204
1.369004
-14.618368
-18.574273
-12.229819
-8.070893
-11.551864
-11.419742
-7.995314
-6.209323
0.551826
8.115137
12.445768
15.981733
15.291187
17.997103
21.810406
7.123997
-12.752203
-16.564821
-12.151962
-6.918244
-5.041037
-9.994473
-11.498947
-4.297525
0.685010
3.097887
8.905499
9.495088
9.881410
18.561451
17.004998
0.966127
-9.159912
-6.326767
-1.576583
-2.702599
-6.423144
-14.835924
-21.273208
-12.411839
-2.375302
0.609971
4.446201
8.595091
17.084792
23.506202
14.789780
-5.551211
-19.903786
-13.581433
-4.618803
-8.877719
-13.432854
-12.189852
-7.344987
-4.358999
-2.412000
5.021266
9.758138
12.855621
23.418780
32.167914
27.570777
11.047116
-4.529927
-10.144109
-9.794748
-9.990534
-14.984371
-18.106846
-10.386656
-0.680884
2.664534
4.843022
9.139597
14.933115
22.434471
25.390773
12.589167
-9.827631
-21.481204
-21.063076
-17.572715
-8.151393
-1.743367
-10.041761
-14.760267
-6.661556
-1.615234
1.927039
9.371385
12.675211
16.911742
26.787768
23.649590
0.970303
-17.093618
-19.593279
-16.381682
-11.061341
-7.944299
-7.796641
-6.581851
-6.040838
-2.775993
3.814089
7.242742
8.430609
12.326163
13.275203
2.651455
-7.139429
-8.000766
-10.255923
-10.458225
-4.660279
0.502978
-1.339114
-6.807725
0.275125
12.400691
17.732198
22.716176
20.334222
13.846907
5.899322
-13.509698
-24.204913
-17.311238
-11.982249
-8.183976
-2.988906
-2.854784
-6.370745
-4.060326
9.135430
16.911268
12.249922
17.179041
30.088461
25.046086
2.008442
-16.402398
-22.079027
-21.722766
-13.910874
-7.231045
-13.515611
-16.987207
-6.133585
7.199016
9.699598
3.823124
7.535105
18.804248
25.137448
28.934792
16.552633
-11.530374
-20.426026
-11.103979
-10.506104
-15.367444
-15.801586
-15.480373
-16.774556
-15.798956
-7.466416
4.651207
12.860713
13.807742
13.313150
21.022860
26.793922
14.611778
-6.133372
-15.801683
-13.507668
-12.109992
-11.823984
-8.422371
-5.988568
-3.164209
-1.068628
-0.328122
5.883466
13.564124
18.498357
24.055861
19.962419
-0.080866
-14.625703
-14.731616
-16.338396
-16.128230
-7.314642
-3.700907
-4.509600
-1.177357
0.090564
3.373582
15.000391
23.950080
22.461170
12.822005
-4.020134
-22.243440
-25.546365
-12.622342
-2.418410
-1.858637
-4.677385
-4.837209
4.635074
16.446307
14.940273
10.456375
21.181087
32.228255
20.612468
-2.512275
-18.476054
-24.355817
-16.456000
-5.994538
-10.628725
-21.708160
-20.524844
-4.825961
8.018418
7.528977
7.347307
19.232316
31.967012
25.452816
1.145070
-17.758156
-19.524213
-14.228124
-13.940417
-17.391987
-17.511530
-12.480880
-3.534772
4.121108
7.992622
11.647530
15.445373
22.147551
29.196679
23.369162
5.358466
-10.199604
-16.373308
-18.705899
-20.627972
-15.062819
-6.502385
-8.097702
-10.525549
-3.933162
4.576400
12.723710
18.258894
18.993617
20.001406
20.400611
7.767833
-14.604290
-21.460845
-16.012896
-13.910404
-7.365845
-3.545139
-11.629398
-14.464027
-4.342798
6.442759
12.785845
17.883255
17.783801
13.168190
7.557722
-6.422993
-19.752529
-15.151024
-2.283599
1.633169
-7.852065
-15.331480
-4.626692
7.725333
8.087643
10.919010
22.613591
29.832213
20.399220
-1.469384
-20.394926
-23.062774
-12.721990
-4.874846
-3.786556
-6.499354
-7.283819
-3.790136
-1.022552
6.800175
15.852412
21.679318
30.361425
19.356080
-9.907665
-19.293775
-13.497960
-13.438778
-16.987442
-16.928646
-10.045483
-3.272619
-0.004547
5.363968
13.684096
19.187904
22.465412
30.240992
27.906661
5.239833
-13.048991
-16.636887
-20.017098
-24.044837
-19.713098
-11.006048
-10.592153
-12.942375
-6.679859
0.623403
4.090205
9.883012
18.368396
25.671171
30.987796
24.650731
0.091702
-18.156153
-15.600341
-12.002244
-14.517956
-13.139071
-7.894195
-5.656259
-6.531062
-5.801639
-4.359296
-1.513566
8.755455
21.158467
26.931930
29.370034
24.799846
4.813304
-17.408327
-24.741981
-20.721754
-16.573130
-15.592022
-14.112065
-10.978983
-6.632171
0.028147
5.063655
7.064568
9.403376
15.538547
24.325373
20.117126
0.452903
-14.544771
-16.059975
-10.616746
-9.530294
-9.888488
1.136583
7.634484
-1.505941
-0.715844
11.605473
13.200949
11.900188
16.309600
10.503183
-6.022117
-17.202850
-20.448129
-16.072200
-5.845815
-1.436157
-4.753021
-6.749210
-0.917915
7.302333
9.908769
14.523892
21.760913
18.671005
3.146840
-12.763647
-17.147661
-13.410632
-8.889518
-5.379511
-3.977973
-2.586960
-1.215897
1.824503
8.106885
13.150956
19.391794
19.808762
2.319007
-13.556232
-15.355963
-15.983589
-9.803696
2.004398
2.041499
-3.144181
-2.984925
2.435327
12.731614
22.171520
24.699763
12.793918
-9.953830
-21.275576
-16.408197
-10.556288
-7.773069
-4.659956
-2.612605
-1.447785
1.257553
4.685157
9.457482
20.635661
31.481935
21.043989
-5.396249
-18.225036
-15.878509
-12.515676
-11.623926
-16.096491
-17.568486
-8.785234
-0.606606
2.899444
7.393944
16.347505
28.049947
34.300612
25.019161
-1.447833
-21.918329
-21.396163
-17.895084
-17.039976
-12.951456
-10.824369
-8.264603
-0.294131
6.249311
6.760258
8.129379
15.734700
24.556596
21.830779
5.008562
-7.972130
-9.781359
-10.291823
-11.646117
-14.907983
-17.102484
-10.927065
-4.840087
-3.538603
2.497345
12.640905
14.502333
11.036168
18.218093
25.139601
14.087960
-4.222721
-16.480880
-19.449953
-16.945182
-14.844466
-10.245799
-5.351033
-6.493690
-8.807447
-5.934340
0.988015
8.139756
14.356402
18.354678
21.226827
21.434117
7.206587
-13.084284
-15.799997
-7.839585
-7.239506
-11.192992
-12.372295
-10.557707
-6.975105
-0.173117
7.365334
10.699480
15.700294
22.112702
16.475846
0.380208
-12.116274
-15.235985
-11.945658
-3.775639
3.862515
-0.850963
-8.714187
-5.133817
1.279541
6.199687
15.984392
25.291934
20.656137
3.876359
-9.155377
-14.345727
-15.536694
-13.159747
-10.442087
-10.422554
-9.188044
-1.535609
6.561345
10.376320
18.072775
26.723199
23.110885
7.295083
-9.746342
-17.986112
-17.758896
-14.898295
-11.177729
-7.971864
-7.196519
-7.163737
-1.073311
10.890838
17.409556
18.431766
24.654297
30.927694
21.575581
-0.637902
-17.262875
-21.184826
-20.429304
-19.498794
-14.116516
-8.314570
-11.489995
-15.151169
-8.359153
1.275693
7.563244
13.725048
19.781446
26.693952
31.952671
21.540792
-2.576262
-18.241728
-18.595084
-14.530744
-12.852740
-13.306998
-17.384221
-20.131993
-12.912502
-2.520990
4.166250
10.065354
15.269260
19.311203
25.313488
33.210824
28.499185
6.778473
-9.380583
-14.050435
-17.604222
-18.541909
-17.731356
-16.039166
-11.023805
-9.854009
-16.224236
-14.687132
-0.772722
7.422440
10.713406
17.163328
22.508530
27.995880
25.156403
5.227718
-16.228227
-20.425208
-11.614882
-6.292775
-3.910207
-3.456192
-9.334290
-10.165694
-3.206801
1.478203
3.910601
8.991505
17.759334
22.146709
12.703535
-4.166898
-15.352356
-15.869752
-8.438621
-2.662938
-5.034196
-9.637826
-6.857110
1.203252
5.188295
7.810635
12.653515
16.210405
19.442405
14.613372
-3.276882
-16.766273
-15.576771
-10.060807
-7.435073
-4.871428
-5.185511
-9.772951
-7.434369
2.344622
9.145039
13.429227
19.728128
25.167578
18.860262
-1.204994
-17.795084
-19.850968
-15.955854
-14.345277
-8.496140
0.514958
-1.013863
-3.986583
5.448006
14.597688
17.007466
22.327148
27.922452
19.624248
-2.214765
-18.043997
-22.164923
-22.624378
-18.021410
-12.720630
-12.448420
-10.081282
-4.591680
-0.027455
7.464963
17.345645
24.598144
30.512183
30.942495
16.125969
-7.392555
-20.600961
-20.377196
-17.658794
-15.358169
-11.833364
-10.220091
-11.206293
-7.309092
-0.578025
1.406945
8.566689
19.220962
21.766064
28.687891
36.244373
17.398750
-14.603842
-25.915976
-22.539557
-20.427977
-17.497541
-15.238199
-14.200129
-10.778239
-6.403118
-3.395528
1.051095
11.073261
19.695379
20.293375
24.386052
32.203385
21.562960
-7.645809
-30.194286
-30.571573
-16.325785
-7.029974
-8.597864
-10.659817
-5.861264
1.960568
5.945027
7.042442
9.525732
13.966710
21.667732
26.629834
11.705173
-13.983628
-19.168509
-8.434522
-6.044917
-9.859997
-9.685105
-7.858127
-6.160174
-3.005581
1.653381
9.015553
14.928842
17.808418
19.464105
11.416256
-5.054583
-18.508856
-20.974959
-10.014556
-3.876184
-9.472631
-7.204221
1.359369
1.452349
-2.266638
1.070979
13.125709
28.015404
33.060935
16.971883
-8.888798
-19.961367
-14.908247
-10.193296
-7.636833
-4.729301
-7.026269
-8.680720
-3.553990
1.078069
4.893738
13.053875
21.101335
22.377442
12.571649
-9.075466
-24.903013
-19.920294
-10.895276
-6.641503
-0.711242
-1.112880
-0.599971
10.531496
11.189699
0.179241
5.910143
28.342061
36.750963
18.705305
-3.938459
-16.606646
-24.559730
-23.200716
-13.100819
-10.486278
-13.882597
-11.387655
-8.156241
-5.006780
3.467242
6.876792
9.473435
27.187779
41.800311
31.222590
5.506346
-14.992066
-24.565900
-29.272053
-22.558228
-8.703195
-10.762544
-19.287948
-15.630677
-7.277573
1.648982
11.077927
15.668157
17.121460
22.056104
31.171822
33.674967
19.002516
-6.619859
-25.489671
-26.087709
-16.448175
-11.949664
-12.000695
-11.161708
-11.299630
-9.734986
-4.377428
1.284925
6.779360
11.983485
17.343511
25.500602
31.024099
22.019463
0.851166
-15.636463
-17.899847
-12.486121
-10.277812
-9.614992
-8.583595
-13.427927
-15.964254
-6.294355
4.593371
7.717269
10.033727
19.247100
27.603949
17.599638
-3.764167
-13.790091
-12.717188
-9.514499
-8.272814
-10.098728
-8.496478
-4.063103
-3.002572
-1.644797
5.742907
13.266914
17.670547
24.109724
19.939104
0.029561
-14.385515
-21.418973
-23.684842
-11.562167
-1.821514
-5.653021
-6.246424
-1.029331
6.407521
14.978828
19.160137
23.904038
26.496540
13.976177
-7.832271
-21.083749
-19.804263
-12.366059
-6.203868
-5.239066
-8.643653
-7.896533
-1.898379
4.378116
9.762837
18.430083
30.621597
30.435968
13.264273
-6.943942
-20.344820
-22.211273
-18.559479
-16.013612
-14.513200
-11.616261
-4.287749
-0.448276
2.669208
12.475778
18.955027
24.222578
30.167887
22.047229
0.532624
-16.655124
-20.729043
-19.428977
-17.734580
-14.498121
-13.245309
-12.665108
-8.867352
-3.361928
0.530583
3.679100
11.236080
20.674253
29.948534
37.735953
28.554844
1.655293
-17.577486
-20.892632
-20.328353
-17.288147
-12.594681
-12.019677
-13.541194
-13.765166
-9.061624
-0.309065
5.146624
8.193137
12.786937
18.946758
30.204228
35.540995
13.102790
-18.437554
-25.151279
-15.538544
-7.726369
-6.282985
-11.704180
-12.094091
-4.857087
-3.210244
-4.985120
1.775489
15.197586
24.031679
23.553468
14.949864
-0.485014
-13.876195
-16.597871
-12.052367
-7.404749
-6.630892
-7.592482
-8.089522
-6.623644
1.245973
9.955839
14.283232
20.319180
24.317220
16.546212
-2.287902
-21.357081
-26.187195
-16.348962
-4.813428
-0.716194
-4.489891
-6.909315
-2.329083
1.856899
4.002056
9.767876
19.261104
26.660519
20.765218
0.924390
-14.806519
-14.979708
-9.085051
-7.094799
-5.839022
-5.818982
-7.688594
-1.333954
8.435411
11.737966
17.062474
27.051383
32.264959
19.199639
-8.885018
-23.752940
-21.730585
-19.390658
-16.919533
-14.166813
-12.248661
-7.135236
-1.052485
-0.011086
-0.446901
6.856856
16.542122
22.061813
26.766758
20.259245
-1.477300
-15.925270
-15.051794
-13.941299
-14.704898
-11.793715
-12.279144
-14.331917
-6.860012
2.933660
7.701968
11.356284
14.960049
22.646846
29.910055
24.287770
8.633458
-7.802001
-17.727068
-19.156715
-18.169487
-17.597703
-16.429750
-11.509958
-3.275768
0.726036
0.615694
3.509607
8.698175
13.411039
21.984509
23.746320
3.417291
-17.290871
-18.130007
-12.668628
-10.765646
-10.212744
-8.602124
-7.317728
-7.229220
-4.457154
4.100098
19.386920
27.565170
22.099349
19.253361
12.496473
-8.204558
-22.475738
-21.193609
-15.920614
-11.528640
-7.599758
-7.002058
-6.432655
2.054787
12.589530
16.690918
19.724179
24.941319
23.563258
10.134526
-4.202962
-10.379704
-13.869878
-14.948981
-10.865783
-7.609905
-8.985323
-9.607194
-3.837609
5.680181
12.718027
16.940438
24.065389
25.579924
7.031852
-14.308548
-20.662344
-23.361105
-23.955482
-16.527231
-9.563456
-5.587406
-1.139832
1.181083
5.530830
16.948708
25.463153
25.525423
28.468723
31.121298
18.139249
-3.057953
-17.923343
-22.885602
-22.562974
-21.790976
-16.530212
-12.098421
-15.029725
-14.629918
-5.376900
5.509547
13.291139
19.157808
26.265885
34.474826
28.173696
-1.823722
-26.816337
-26.445798
-19.191885
-16.756961
-11.966751
-7.500356
-10.247852
-11.802259
-6.272661
2.914696
10.269094
11.981299
20.608182
35.229782
33.126530
14.016294
-5.010739
-14.706370
-17.141078
-16.153615
-12.364783
-11.166330
-12.307182
-10.342545
-8.588123
-4.185025
7.326752
11.154288
5.810521
14.570023
29.418883
18.351466
-10.009684
-23.732154
-20.445649
-11.771794
-2.606011
-1.935728
-7.217356
-5.345018
1.140696
6.967062
10.494936
10.325826
17.247418
29.968877
22.498353
-7.661798
-27.001685
-20.849995
-6.859747
-2.334566
-9.409899
-13.827822
-9.762746
-3.061641
7.145404
15.333885
20.594075
27.855021
26.151353
7.845747
-12.784993
-17.922457
-15.256184
-15.851824
-13.530161
-9.724281
-5.696004
-3.910395
-6.887704
-0.781394
13.520020
24.172349
28.622946
19.680787
2.536584
-7.928943
-15.215824
-19.986856
-11.659911
-1.591405
-4.267549
-5.161875
1.916878
7.894675
13.418955
19.059193
25.129999
20.728223
-1.392763
-20.225315
-27.593740
-29.571207
-23.157903
-15.113212
-11.880509
-6.735324
1.533742
7.785979
10.793149
13.449905
22.457002
31.645241
22.275770
0.893535
-13.536548
-18.444356
-14.050010
-8.876115
-11.423342
-13.493299
-7.914777
1.797195
9.298745
18.147982
27.742476
33.445306
38.075132
26.295748
-1.527327
-16.147643
-19.843551
-23.448912
-18.282008
-9.152837
-13.264827
-26.369584
-18.881143
4.746876
13.308078
14.722382
16.232381
15.938386
26.179149
25.435011
-2.054383
-27.201186
-30.074118
-18.343849
-15.175423
-23.144181
-23.121094
-16.589386
-8.833840
-1.269701
1.764354
6.252435
17.132386
33.463266
42.802579
29.925346
4.584167
-11.032883
-15.700914
-20.004463
-16.737343
-10.836925
-11.789005
-5.700794
-0.426733
-0.211938
7.933301
15.567012
20.602708
22.094282
18.441291
20.977215
19.152705
0.685305
-18.447601
-22.398757
-12.440313
-5.262718
-11.608983
-18.393930
-15.497868
-9.906007
-6.842261
-2.087377
5.888599
13.378440
22.802327
27.512333
13.316441
-10.237650
-24.053062
-21.513694
-9.037734
-3.273893
-5.816111
-5.643712
-6.038426
-6.439571
3.432348
15.004475
16.699980
19.382581
27.542923
19.701212
-7.274117
-23.596851
-20.461770
-12.483853
-6.478050
-6.803134
-11.761626
-11.115986
-2.220429
4.142288
4.898311
12.054513
24.980532
30.588988
18.476747
-5.824645
-18.007909
-13.224832
-7.706500
-8.142170
-10.284152
-6.814868
-0.396558
1.699714
3.508411
9.176424
17.303567
26.539331
21.422300
-7.022203
-24.581041
-12.189625
-3.663123
-10.665613
-13.515890
-11.204287
-5.637969
0.968388
4.169806
12.740305
23.516220
26.259653
16.671952
-5.017006
-15.831432
-10.225398
-10.966216
-11.622892
-5.480172
-10.226057
-14.291340
-0.369290
12.911217
16.049416
18.850763
17.912689
7.750236
-5.564176
-15.426233
-17.031584
-9.661935
-3.136903
-3.683670
-7.348420
-10.099992
-5.729425
4.308614
8.112467
8.713798
16.788910
20.906816
5.815200
-12.276439
-15.207251
-14.641279
-14.542828
-6.328973
-1.764565
-5.367618
-1.098329
8.521922
11.954109
12.868952
15.962487
22.703553
24.935963
9.519138
-13.498728
-26.496251
-23.846599
-9.944846
-4.249155
-9.872682
-7.699078
0.283799
2.275308
7.576749
17.432744
16.727032
17.479436
27.308764
18.999912
-7.030358
-23.516844
-22.331147
-11.436254
-5.876203
-11.080972
-13.337647
-5.150232
-1.653177
-8.492603
-5.265688
12.631554
26.423063
26.916500
17.285020
3.813875
-10.294251
-22.187189
-21.929432
-11.116678
-6.206740
-8.694777
-8.163200
-4.320160
0.948271
9.049517
14.829062
15.053031
17.282257
20.705704
17.947526
7.551827
-11.485974
-24.259099
-20.271957
-12.137452
-6.123805
-7.863321
-14.424662
-13.557878
-7.155622
3.741975
12.656025
14.331931
21.862165
33.985027
31.396453
8.492004
-15.294794
-18.944577
-10.052066
-7.857685
-12.391644
-10.547685
-0.816037
3.620753
-0.757174
-5.637295
-3.299094
8.969705
20.820603
22.727264
10.132569
-13.452185
-22.066420
-11.691448
-8.573274
-13.204484
-13.751167
-11.943684
-5.062892
5.251318
9.517588
11.649191
17.695538
25.914550
32.569006
23.909576
-4.409170
-25.223772
-20.978259
-14.330763
-16.739855
-14.959598
-13.542943
-13.069372
-5.799213
-0.583121
2.909942
12.882606
26.924422
36.619384
35.713240
24.259013
0.230144
-22.533717
-25.418043
-20.005928
-16.161273
-11.416615
-8.430089
-10.025962
-12.069322
-2.921052
7.400787
7.954514
13.586858
22.871303
27.869499
26.255421
7.149789
-16.804794
-23.783219
-19.895145
-15.309695
-11.853825
-13.525852
-17.812765
-15.465133
-5.375449
3.962041
9.091731
15.319273
22.942020
28.682169
34.544400
33.930074
15.749880
-7.873535
-19.387917
-21.136312
-16.542300
-9.027344
-13.002885
-25.638058
-24.495658
-9.598158
2.746740
4.955528
2.650810
10.353122
19.637804
20.053630
25.503299
28.844982
10.983672
-15.841117
-26.502751
-19.142692
-12.337871
-12.415270
-12.744153
-12.246483
-10.785465
-5.867574
2.423872
8.551539
10.511468
11.963717
14.788123
25.046564
35.084583
21.781547
-6.607499
-21.034954
-19.686101
-15.007401
-11.497993
-13.483077
-18.222985
-13.961453
-3.888940
-0.356776
2.081283
10.103121
16.157002
17.592557
19.047272
24.211746
24.803592
6.130097
-17.213429
-20.880820
-14.887927
-16.108932
-17.936954
-11.758510
-5.932525
-7.112058
-3.593669
6.824315
9.935876
10.608417
18.071159
23.114740
24.437897
19.964767
-0.163926
-19.404017
-18.508089
-11.995109
-14.311355
-15.763970
-12.442557
-13.877525
-15.907593
-9.743703
1.682673
13.883763
19.113289
16.960888
23.351777
34.796694
23.432285
-6.562533
-20.958596
-17.182067
-13.564196
-12.111937
-10.771813
-10.050421
-9.934933
-8.663314
-2.964956
5.159817
11.591884
13.647030
16.179527
22.270386
15.955521
-4.900491
-17.433855
-18.048567
-15.452988
-8.038404
-3.545607
-7.277343
-9.302365
-6.446251
0.552786
8.736777
12.533920
15.523039
20.881881
29.698814
32.715775
12.354837
-15.442711
-22.916972
-17.693094
-16.338436
-16.769559
-13.900044
-11.881424
-9.165420
-2.116113
2.415092
6.097797
11.852935
13.808962
19.008474
29.254913
24.113659
0.238856
-16.559073
-16.341260
-14.899546
-15.733943
-14.004872
-13.628939
-11.159326
-3.724098
1.596687
2.997532
6.670947
14.929442
20.486422
23.783335
26.544445
16.278259
-3.321685
-14.594965
-18.392272
-17.490400
-10.781960
-10.660182
-17.791832
-17.115797
-8.281210
-1.623871
-1.988485
0.349425
11.408427
20.077359
23.494980
22.702909
12.623084
-2.876922
-13.342478
-15.638424
-14.386560
-9.560188
-4.384529
-5.431043
-5.586846
-0.655761
5.327478
8.980484
7.665211
11.135069
23.835996
29.747269
18.285398
-4.004100
-23.807076
-32.887184
-27.764699
-11.795868
-2.564908
-7.552024
-12.782805
-6.733847
4.891617
7.382872
5.397694
14.908259
25.952996
28.129157
32.994567
33.010249
11.834039
-16.477194
-29.247975
-24.871770
-18.358135
-17.038489
-20.504257
-23.695640
-14.385049
-1.967582
3.102678
9.282922
11.849356
14.235467
26.135135
31.567055
20.345400
1.582248
-14.535663
-18.274082
-12.396952
-13.642250
-20.704743
-19.286000
-13.818045
-8.998596
-0.938931
3.031686
3.620661
13.739610
26.874922
27.768681
22.383603
19.090462
6.861539
-13.312941
-19.928860
-12.885974
-6.064466
-2.626745
-8.643476
-17.299701
-10.321456
3.555242
5.069913
-1.054388
0.447705
11.155067
21.109714
21.151843
12.443510
-0.874818
-14.088036
-18.309188
-16.145477
-10.358131
-4.665225
-9.339645
-11.536802
-2.058903
4.102550
6.529910
14.829410
22.648802
24.229122
21.468680
6.384911
-13.981489
-19.055945
-16.049943
-11.083338
-3.925684
-7.286190
-12.171466
-7.005414
0.470124
8.383237
14.407904
18.939622
26.621569
29.401031
18.855793
-1.545011
-16.565025
-16.393469
-14.440119
-18.043938
-19.484692
-19.701816
-17.187839
-9.975115
-4.224571
2.928605
11.839409
12.595678
12.658622
24.063988
27.955972
12.066680
-6.390863
-19.955837
-23.158019
-10.705991
-0.009145
-5.501807
-15.760236
-10.780394
1.922095
4.129139
5.678727
9.768431
12.295579
24.071558
32.623244
17.757688
-7.380316
-20.709205
-20.379579
-14.846376
-9.910595
-9.926017
-12.100475
-10.787237
-4.074244
7.506454
13.841865
12.180891
17.007860
29.514708
33.151654
17.483029
-4.694043
-15.140271
-19.815135
-22.934397
-19.285605
-15.977286
-15.270425
-13.608043
-10.306806
-3.669861
5.316400
14.694955
18.069196
19.237888
28.486452
26.819080
3.016815
-16.284756
-18.639964
-18.198553
-20.563214
-20.762697
-20.451254
-21.226285
-15.432785
-4.424080
2.442250
10.091355
20.411580
23.745444
26.572013
35.296767
30.051079
4.802237
-14.181046
-16.315882
-13.535922
-10.313402
-10.138071
-16.326638
-16.050221
-6.756821
-4.376921
-3.778209
4.854404
15.074009
24.925951
25.649151
16.641435
25.526928
44.018007
29.554317
-5.290860
-20.449786
-18.084445
-15.467299
-16.402135
-17.715374
-18.127732
-21.076830
-23.831086
-17.104479
-3.398166
3.289761
5.717083
10.695945
12.182178
16.955527
22.813606
12.258036
-7.278368
-19.025308
-18.952877
-11.923078
-8.771715
-10.758481
-9.809340
-6.606319
-4.749700
-0.491987
8.583359
16.561501
19.304706
25.053388
30.893741
16.911149
-8.903398
-19.035763
-16.074890
-14.739344
-12.562246
-7.955530
-7.119247
-9.466760
-8.490301
-3.504580
3.123168
12.071025
19.324050
20.411112
23.696895
29.286457
18.701761
-5.577883
-19.294462
-18.883701
-16.802252
-13.783640
-8.673797
-8.770746
-12.501015
-10.291352
-2.978664
4.339681
8.630838
7.843986
12.112611
24.947840
30.359763
18.945665
-3.909315
-18.888419
-18.176594
-16.051759
-13.469165
-11.729065
-14.747196
-11.314893
-3.728705
2.699839
10.871699
12.185717
7.635073
14.045825
26.868554
18.766860
-7.664781
-18.326259
-12.891750
-13.764011
-12.207225
-4.696630
-9.105321
-13.846599
-4.085990
2.934635
1.763257
10.254298
25.625668
27.717424
18.079845
2.272647
-15.978160
-17.521914
-7.273148
-7.732223
-13.404283
-10.899970
-3.698992
0.163288
3.725147
9.295479
12.836423
18.441619
18.548671
1.682505
-15.122512
-17.332457
-8.899297
1.142797
0.315917
-4.199117
2.380513
14.773533
26.301726
33.133874
27.305195
5.316089
-19.102525
-23.518523
-17.856674
-21.529545
-18.426339
-5.737337
-5.667839
-12.884884
-8.702014
3.294970
10.534521
17.153794
26.873777
29.780887
20.839714
-0.240049
-18.309864
-21.186414
-23.071555
-24.113935
-15.532305
-6.434729
-5.720325
-7.460002
-3.127510
3.436625
11.073151
19.210556
25.358554
32.529550
35.054616
28.370031
8.512029
-19.873557
-27.763813
-16.883543
-16.769407
-22.739275
-21.410053
-16.493537
-12.640234
-12.731918
-11.733641
-2.752549
11.341005
20.395541
20.876854
26.680084
35.515515
24.771049
0.939127
-14.265643
-18.961639
-19.661621
-16.588593
-9.059370
-8.602062
-16.738276
-15.326512
-6.664832
-3.560171
3.927383
15.732381
15.648756
14.184118
23.891376
30.752410
22.820029
1.030670
-17.182773
-19.771254
-16.914795
-9.873554
-4.158566
-9.895901
-13.672660
-7.849299
0.359466
6.814411
10.841730
15.032574
20.085825
23.496951
17.021034
-1.649762
-18.399527
-22.830542
-16.688802
-9.201185
-7.797276
-9.461179
-9.615336
-8.380677
-6.744661
1.020774
14.710023
19.222671
18.098923
26.161106
30.935779
18.435575
-0.808275
-14.266783
-21.391529
-21.892391
-15.203957
-11.220925
-12.401802
-9.058954
-5.817932
-6.073517
0.337254
7.387883
6.762705
12.322800
24.653142
21.376734
2.828578
-9.171141
-10.025445
-9.225218
-6.888493
-2.715610
-5.165524
-10.977108
-13.140626
-11.247864
-2.557027
6.624165
12.568215
20.023910
25.639278
26.868270
19.700839
0.208768
-16.823002
-17.602429
-10.127170
-7.152351
-10.993487
-14.538196
-13.130398
-9.581125
-7.789723
-5.961300
2.112760
12.782895
18.472605
19.828171
17.787501
9.113455
-4.161483
-12.363531
-14.281592
-11.775937
-2.998195
3.217029
-1.298816
-8.502578
-3.709212
8.535340
10.617878
8.339742
10.367342
14.607612
20.369425
11.115615
-14.648756
-26.881017
-16.872870
-7.310380
-8.771145
-8.264803
-6.463024
-8.544637
-2.367512
7.490718
9.700718
11.413477
18.706182
25.857982
20.939938
4.978974
-10.546108
-20.432223
-19.086597
-10.360595
-6.262260
-6.344885
-4.761709
-0.021673
1.314363
-1.343676
3.598637
9.601050
9.001011
15.773215
20.940390
1.455698
-20.092286
-16.476106
-10.534621
-13.416286
-6.938780
-1.214916
-5.612689
-4.213212
2.720767
7.820576
16.296803
25.205113
27.083307
22.172851
7.794563
-13.399851
-25.757562
-23.338095
-16.155475
-7.025642
1.853028
-1.104107
-5.371678
3.588255
10.008637
4.995309
5.779241
17.237234
18.117906
3.807967
-7.895524
-12.570017
-11.355209
-5.017142
-4.249909
-11.653235
-12.532824
-5.277168
-6.007122
-8.654765
1.312614
14.079153
19.088922
13.314652
-3.249849
-15.976239
-16.615490
-12.907537
-7.489111
-4.602901
-7.671398
-5.894029
4.622169
12.870019
13.154177
13.889160
21.907723
20.763315
-0.018241
-12.823655
-5.510526
-0.540919
-0.160810
1.430404
-0.348241
0.128010
3.955579
8.368035
12.280433
15.795642
25.043574
28.139733
12.277813
-9.052190
-20.253230
-22.885336
-25.313111
-21.986481
-11.488018
-8.267936
-14.114826
-15.966064
-3.410695
13.362091
16.664374
16.632424
23.621376
23.954113
9.901691
-7.032988
-10.794303
-9.098232
-12.515018
-11.085984
-11.467684
-18.832794
-18.651012
-8.702225
0.020467
-0.083478
6.363540
21.053371
19.756587
18.069917
29.254000
18.041417
-16.930055
-28.329772
-12.811025
-9.174006
-13.258319
-6.938609
-4.014522
-8.047954
-9.755417
-4.462821
5.220409
10.454531
13.837612
18.711996
24.349058
27.973654
17.659229
-1.207879
-13.512347
-19.049965
-16.542960
-11.579961
-13.153742
-11.524771
-3.677836
-2.078617
-5.069738
-1.744169
4.463587
8.827784
15.823940
22.213363
20.119942
7.853923
-6.036575
-11.456978
-12.061358
-10.843521
-9.722459
-13.734800
-16.927108
-15.396978
-8.860967
2.284754
9.334670
12.707897
16.913401
20.614756
24.840570
22.173512
4.595318
-16.166057
-22.767593
-16.398357
-11.407368
-11.148116
-7.885200
-4.146210
-8.489621
-10.884453
0.259709
9.821900
11.655772
23.597746
36.566878
25.969959
5.791738
-4.217275
-16.462191
-27.490159
-17.351470
-2.603964
-3.221261
-5.819650
-3.012683
-4.066828
-3.599666
7.939792
15.463909
9.931123
13.763308
23.956172
9.839894
-13.864458
-18.304290
-11.032695
-4.943170
-8.724228
-18.068825
-15.717373
-6.488350
-1.884173
2.423406
10.027077
19.872027
28.387964
28.249984
13.146765
-8.020591
-18.877295
-22.717975
-20.563785
-8.833812
-3.645708
-6.283348
-2.606914
2.574794
4.581647
10.730128
19.183531
23.675711
21.282296
4.391671
-17.113574
-20.648515
-10.825084
-4.412239
-5.491626
-7.927605
-5.850769
-5.401940
-5.074413
3.894216
16.242531
26.818490
29.339997
17.401161
-1.344538
-18.203018
-24.698169
-18.348720
-10.096427
-5.687766
-3.665490
-2.989779
-2.870324
2.597941
12.379842
11.460444
9.441374
19.542640
16.266949
-7.963057
-25.154945
-23.945804
-14.306944
-4.413721
0.336051
-9.021583
-17.539074
-3.170603
12.662123
10.103523
6.073989
15.874092
30.213936
28.990811
10.287814
-13.460395
-26.011326
-13.056985
5.277776
-1.327803
-13.561164
-4.214329
5.364283
0.862535
5.947947
19.309389
12.590004
-7.351819
-14.508720
-11.831211
-10.784128
-10.326072
-7.340754
-5.027196
-6.723641
-5.402719
2.848337
15.510557
26.184524
30.036527
31.814206
19.253985
-10.082927
-22.493702
-14.256568
-10.114635
-13.564890
-16.403830
-13.749641
-9.472814
-4.541181
3.290896
6.849516
8.370508
18.736732
32.501854
27.612551
-0.599488
-24.977715
-28.132499
-19.142173
-11.832237
-8.749545
-5.659609
-7.352373
-8.427263
2.297182
11.171498
10.057757
14.792681
28.353266
33.321813
25.341410
11.301056
-9.244806
-22.492752
-20.008345
-19.050041
-17.463957
-10.560502
-9.052823
-8.243613
-6.889365
-5.682339
0.642485
7.761498
14.825137
20.828342
22.420889
17.468245
1.969943
-15.000287
-22.637462
-18.759272
-5.491611
0.394444
-7.208976
-11.613692
-7.390377
-3.000635
1.258181
10.511780
17.847764
21.224038
28.307330
29.048331
13.637951
-8.279913
-22.822994
-24.686069
-17.898703
-8.616218
-5.874178
-9.326915
-9.031320
-6.317666
0.216071
11.818023
15.710809
15.271860
23.670596
32.421263
23.630863
-1.297239
-18.476910
-18.263571
-12.828185
-11.661882
-17.330622
-18.892176
-9.575360
-4.993263
-6.763412
-0.035247
9.071093
11.753461
13.618327
19.109231
27.902797
23.008329
-1.607620
-17.825594
-18.326577
-15.869235
-10.615027
-10.048191
-16.983905
-19.165849
-14.011524
-6.913952
0.485007
4.507710
5.289480
14.405997
26.475485
28.538315
31.739785
28.478909
2.266730
-20.510345
-20.870190
-15.233096
-15.507586
-14.814254
-8.453903
-9.734325
-14.614163
-4.972025
4.058003
-1.673705
-3.064627
10.492479
24.515403
28.896387
25.074671
8.661182
-12.496800
-16.942082
-11.716867
-12.332110
-12.377156
-11.107371
-12.877651
-11.620367
-4.110815
5.843547
13.870250
18.250564
18.808370
20.907822
30.607564
32.933455
11.442992
-16.101786
-23.912487
-16.335091
-13.421294
-18.975939
-20.402717
-14.803380
-10.245458
-5.586941
-0.542641
-1.520444
-0.206412
11.523113
24.643027
36.230137
38.106801
16.607320
-8.258140
-15.336332
-17.846670
-24.050618
-24.267291
-16.176167
-9.030946
-10.168180
-12.352646
-6.732559
5.824457
19.124495
20.688841
17.739205
23.957629
21.287750
1.307823
-15.852564
-19.801942
-19.069089
-15.471045
-6.384415
-6.718264
-13.783764
-9.750008
0.022968
8.788421
13.289204
15.235197
24.278864
32.881481
25.574149
3.860021
-14.639378
-20.430479
-16.839570
-8.988645
-8.121343
-11.189010
-7.174151
-1.827912
2.972232
2.057205
-4.473334
3.460708
21.611688
31.832646
27.992374
11.686725
-4.643886
-13.895129
-16.249230
-18.920678
-20.363230
-11.725986
-9.601095
-15.280954
-13.205093
-7.129295
4.755702
15.288078
17.706895
28.800115
36.289463
17.000591
-7.907071
-16.022009
-15.586943
-12.437944
-9.953406
-17.663395
-23.125969
-13.277736
-2.912062
0.910245
5.648645
11.441580
17.575589
28.570139
36.647890
23.603959
-1.474040
-14.206648
-15.534987
-14.036475
-10.309445
-10.284191
-14.670654
-14.960207
-10.205251
-4.414132
1.964422
10.277779
21.023836
28.941071
22.837142
0.636598
-19.375318
-19.795973
-8.915717
-5.140059
-10.435710
-13.705260
-9.123683
-1.681789
2.704060
5.091405
9.549451
18.415449
30.638288
35.323207
20.832884
-0.824640
-10.399095
-13.851214
-19.309796
-18.752844
-14.566632
-14.052328
-12.777449
-8.141486
-2.315154
2.711934
8.949451
17.292267
25.467325
34.201860
29.228621
4.243929
-15.191869
-23.330692
-25.358207
-15.187476
-10.810586
-17.621538
-16.954107
-11.266159
-7.318338
-3.550904
2.266980
9.441176
17.249106
29.561018
40.633505
43.194630
31.936995
6.370475
-16.126448
-24.509658
-20.380992
-15.419138
-22.789260
-26.305163
-16.848761
-13.183413
-16.116586
-13.078248
-4.483409
3.765652
11.696009
18.389225
22.882429
29.888411
30.103514
13.897723
-4.685716
-15.219513
-18.757646
-14.198020
-8.786572
-10.886998
-16.438821
-19.254724
-14.734805
-5.470386
2.061108
9.917776
17.686334
22.585756
28.121988
34.038460
29.914301
11.026794
-9.100012
-19.130687
-23.353075
-25.624017
-21.609196
-14.764917
-14.547354
-14.683020
-7.579864
-1.586423
1.318333
10.820991
21.332484
22.152255
22.825294
31.897185
35.178678
15.884618
-9.695670
-17.727932
-19.703239
-24.991533
-25.224983
-20.464328
-13.279955
-7.506532
-5.402465
-3.166021
0.931405
6.792336
13.274914
19.546763
26.290562
33.027192
30.163420
8.728888
-14.256825
-20.449705
-18.648973
-19.459155
-19.825419
-15.688703
-10.871908
-10.616545
-11.132551
-6.287663
1.795077
10.042541
17.722436
22.628625
24.886050
20.043485
3.333207
-13.856124
-19.137235
-15.838957
-10.505640
-7.172675
-8.537590
-9.866113
-7.235000
0.806474
11.534709
15.398859
15.398559
18.115601
24.392840
25.670868
7.548065
-11.536212
-16.828451
-19.978591
-15.184869
-5.647281
-6.865892
-15.595185
-18.937513
-9.181856
2.642762
6.738551
8.651696
13.976614
25.680790
33.518004
21.963110
-2.537805
-18.002155
-18.452364
-17.656267
-15.636957
-7.356610
-2.833085
-3.642904
-5.876127
-4.234964
7.560460
17.867330
17.801159
15.720177
21.202590
24.475850
6.230493
-16.161411
-22.515200
-22.661448
-15.870770
-6.628599
-8.079049
-10.967714
-8.473450
-6.604569
-0.594565
10.640997
12.955929
14.093565
21.363903
13.206274
-7.194279
-18.315358
-14.918082
-4.423013
-3.441719
-7.756481
-5.789487
-8.288305
-9.548499
3.375237
15.558023
18.338359
20.016094
24.643764
22.496369
3.438902
-14.519372
-16.437863
-14.053121
-11.817390
-7.203126
-7.600971
-13.766637
-12.526001
-2.252933
6.749410
13.746566
20.864467
27.992667
32.543372
23.506041
-1.523443
-22.886898
-24.952516
-16.827022
-12.223766
-12.097630
-10.478319
-6.108816
-3.485432
-2.275348
1.262460
6.754365
10.674436
16.528752
27.180277
25.986658
5.415950
-13.389810
-18.178844
-15.957340
-12.182038
-12.246026
-15.657863
-15.237318
-12.897482
-8.584398
0.126398
8.407386
14.769103
18.251165
18.387643
21.701599
28.046375
21.921815
-2.079763
-21.117302
-21.664638
-15.094631
-9.932899
-9.691059
-12.258200
-11.230499
-4.738622
1.934888
2.864151
4.621027
10.382197
18.977093
29.096626
27.048615
9.633142
-10.147484
-19.329962
-17.136733
-16.354279
-16.532303
-12.602057
-10.702171
-10.627976
-5.924437
6.606152
18.446803
20.126381
18.122199
21.980891
33.184645
37.192959
17.926326
-13.611138
-30.062462
-21.171894
-12.768541
-19.890071
-20.115514
-16.034020
-23.415979
-24.695310
-13.483338
-4.969531
0.333997
8.085325
18.180128
29.451997
32.888434
15.103348
-13.291676
-23.494512
-15.904273
-11.526552
-10.337168
-7.952665
-8.973469
-7.094608
0.252256
2.012917
1.816069
9.512239
19.079038
25.614181
31.865594
35.225952
23.851967
-0.335940
-18.363217
-23.516002
-17.797892
-10.109594
-10.495896
-13.733055
-13.407397
-6.829517
4.074907
11.138889
10.697559
8.513393
16.423039
27.237626
17.361863
-5.445234
-16.781577
-18.204181
-15.890874
-9.627408
-6.556760
-7.253133
-5.293185
-4.568823
-4.616791
5.148802
17.295960
21.901228
30.258126
40.304751
29.360074
-0.734982
-21.049398
-25.156485
-25.383917
-20.960605
-16.389565
-15.843210
-12.768252
-6.839668
2.052259
10.719459
13.802772
15.353398
23.679759
31.452172
13.501890
-17.728438
-25.517313
-20.894216
-22.464164
-20.514699
-16.133688
-14.398783
-8.213213
0.527045
3.533903
6.131941
13.873464
20.502486
26.497753
36.086049
33.672807
9.728957
-12.533541
-19.192465
-17.053289
-10.504455
-10.491107
-19.708545
-19.393439
-5.839609
0.946015
1.282050
8.961504
17.214674
24.880994
29.962060
14.623162
-11.619178
-25.775418
-24.007457
-13.136736
-7.390539
-9.896716
-13.664911
-13.629007
-6.193949
0.464003
4.924209
16.615933
31.832608
38.656313
32.284073
15.610163
-7.323807
-23.598029
-23.846983
-17.792072
-11.976213
-9.782504
-12.658837
-10.905490
-3.244730
4.513594
12.393896
19.755972
26.063315
30.843170
27.961505
11.059458
-11.819291
-24.080821
-20.450387
-9.810047
-9.187081
-17.019884
-12.871377
-4.678828
-6.773336
-5.243732
3.148662
9.537644
16.888826
28.455763
35.825188
23.315711
-1.913270
-16.097423
-19.373170
-21.277893
-20.070007
-16.012197
-15.283796
-15.932099
-10.404155
-4.173551
-0.130797
7.766652
17.046461
25.409230
28.652746
17.628493
-1.094840
-12.125745
-15.607318
-17.416303
-13.923245
-7.909274
-10.213008
-14.711463
-8.301185
2.013141
7.274141
13.693835
23.597009
32.247891
34.962598
23.893916
0.856894
-14.738920
-16.378595
-20.362044
-22.087438
-10.959958
-6.575285
-13.308519
-14.342968
-5.435753
7.950218
16.627005
20.000452
25.163029
32.756991
29.739197
6.395042
-17.987934
-27.643434
-26.326181
-16.737810
-12.248525
-18.128802
-17.130970
-6.410076
-0.430940
-1.144031
5.512756
18.302108
21.457743
25.002002
32.862148
19.811527
-7.539295
-19.252456
-15.957008
-14.124931
-11.500383
-5.354539
-7.430477
-8.424568
0.307858
6.344875
12.285156
19.228368
24.673922
22.724992
-3.227302
-25.700420
-18.698160
-11.710079
-11.763249
-8.567480
-11.156369
-14.895003
-10.889251
-0.845736
10.002239
15.411606
15.082333
22.544585
32.804297
13.685696
-15.251448
-16.834498
-12.656134
-14.980390
-13.425086
-12.720944
-8.653252
-2.981622
-5.529995
-5.377471
5.051919
16.224924
19.216374
23.123189
29.102201
11.664604
-14.908801
-19.137583
-16.263262
-12.234684
-1.410893
-1.538223
-12.136433
-11.856595
2.117905
12.935460
13.330565
15.063375
21.391777
24.243689
14.992623
-9.180368
-29.058892
-27.798489
-14.915933
-10.555852
-15.154256
-9.843739
0.083041
1.804573
6.220606
16.259871
21.380502
24.297654
28.630938
17.741703
-7.808946
-19.806461
-18.619149
-19.724613
-15.925331
-6.761908
-6.213724
-13.757736
-12.181650
2.533484
16.848569
20.503129
14.919539
18.054955
28.928161
20.164061
-5.835873
-25.406933
-27.733545
-15.878586
-3.792466
-3.412398
-13.448320
-16.285676
-4.123174
11.538068
22.330051
19.024443
12.649599
23.347382
23.602798
-4.446714
-25.366417
-24.119651
-14.640544
-4.515146
-5.165200
-14.522817
-14.420302
-5.760266
1.980397
5.792289
8.400669
18.074752
28.902763
24.402081
4.621351
-13.356487
-18.248799
-14.173553
-8.858560
-6.464416
-9.120714
-12.962008
-9.518883
1.427784
12.597369
18.973535
23.024753
30.003048
26.476183
0.956751
-20.700573
-18.529348
-10.967123
-11.415275
-11.789208
-11.375746
-11.554489
-5.343730
2.588066
7.420294
14.194788
18.739845
21.013595
24.052270
17.216540
-1.848469
-19.271511
-23.111307
-17.618450
-15.766284
-17.755539
-13.592081
-5.202441
-1.923481
3.001345
12.731406
17.987856
21.815938
29.826973
34.529980
19.229367
-11.215532
-26.145040
-20.411320
-13.004281
-13.888120
-16.439056
-12.709019
-12.111762
-10.038701
2.489450
8.072086
4.255411
6.775831
22.151987
37.781155
25.196780
-9.497981
-27.498981
-23.086645
-16.169643
-9.015030
-3.626358
-8.064915
-9.519534
-2.524669
-0.429760
3.583611
15.207446
21.318208
22.418540
21.769552
11.199936
-6.158890
-16.231511
-16.970473
-14.998584
-10.107923
-7.542034
-12.031987
-11.653428
-2.455504
5.653378
10.014804
13.201859
17.403949
25.745140
35.165471
31.857563
9.300041
-15.549525
-23.487236
-16.335163
-10.183481
-15.229696
-23.436347
-23.479718
-16.056646
-5.793537
2.282341
5.748649
10.383241
21.168609
32.757267
34.498949
22.252522
2.826252
-12.346973
-18.736344
-18.919310
-18.006768
-19.475444
-16.964343
-11.635709
-14.544187
-15.449066
-3.489988
7.287539
10.777433
14.163461
19.586054
30.466752
41.071292
30.550348
-1.211684
-22.327444
-20.268546
-15.773977
-16.269404
-14.985190
-13.331773
-14.693415
-15.042430
-8.426793
-0.318263
4.745059
10.482701
16.981824
26.133591
32.116873
18.998541
-4.562242
-18.587604
-24.314034
-22.011903
-10.797609
-5.748793
-10.094338
-11.987607
-9.680751
-2.537356
9.323705
16.625974
19.442041
27.642821
37.755044
35.160884
15.778826
-8.549022
-22.623929
-24.166759
-18.645178
-11.543536
-11.783705
-14.737241
-11.494350
-9.662616
-7.321533
3.372964
12.493546
17.527068
28.471366
40.035289
34.702318
10.040562
-14.456803
-25.905888
-27.471090
-22.313243
-16.236329
-16.038233
-18.970313
-17.359085
-10.332475
-2.001472
8.176118
17.459847
22.384574
30.061485
37.481153
28.634193
5.697644
-12.205635
-19.242442
-22.698522
-21.398791
-16.116105
-14.820994
-14.370497
-10.299491
-3.894907
3.740768
11.015705
21.484394
33.307072
30.392603
8.095949
-10.789864
-15.184909
-20.626800
-22.845229
-13.158015
-6.062322
-6.002779
-7.840042
-6.059238
0.757511
8.178000
18.570598
24.629572
25.662076
29.835587
20.550728
-5.566548
-23.403651
-23.098240
-16.140350
-11.740861
-9.264197
-8.789854
-8.284543
-3.513171
4.871076
13.518794
16.164411
18.197617
29.872957
35.474219
16.607608
-11.531668
-22.968010
-19.852750
-18.760002
-18.911561
-15.542597
-12.581548
-11.785960
-10.303885
-3.577910
5.791803
14.910505
23.867075
26.134207
27.631336
25.704577
1.753911
-21.633998
-21.785931
-18.099685
-16.954197
-14.281281
-15.210265
-16.713192
-10.316255
3.600980
10.251543
8.517770
13.438257
20.667864
21.540619
22.327486
19.441712
0.069505
-20.985576
-20.615099
-10.021089
-7.247301
-13.599939
-17.546403
-10.596145
-6.787245
-7.507240
-0.362035
9.474335
19.073700
26.029655
24.596309
13.950495
-6.108435
-20.978142
-18.356811
-7.816725
-2.409152
-5.038233
-7.687658
-8.689287
-7.803539
2.738594
16.754360
22.285663
22.373619
26.771432
31.174527
20.298479
-3.117783
-22.375009
-29.091095
-25.185670
-19.248383
-14.423947
-12.028030
-16.780877
-17.710278
-3.500940
11.544884
14.360815
17.033204
27.990890
35.679757
29.428420
7.014640
-16.858893
-22.373888
-17.009769
-14.991458
-15.814867
-17.264165
-15.856863
-10.553207
-4.383774
3.755865
12.943669
19.153126
21.507583
24.530777
29.483080
21.368319
-3.222487
-20.031814
-20.371528
-16.595093
-10.895616
-6.655437
-11.676510
-17.887707
-11.796020
3.292163
10.338093
9.052508
13.939015
24.576756
32.977569
25.541527
-1.068416
-18.984780
-15.815284
-7.561143
-9.044985
-20.943985
-24.892559
-17.438299
-8.384546
0.230692
3.626350
10.357958
21.619452
24.122831
25.058494
23.526212
9.706641
-8.647634
-23.304221
-28.705453
-24.037258
-15.989743
-9.572349
-7.331402
-8.862747
-7.461436
2.271819
12.512754
17.178697
23.171022
32.770548
34.810441
21.106342
1.186722
-13.872124
-21.857200
-20.347790
-14.000281
-14.610885
-20.801358
-19.517519
-9.163348
-0.457716
2.924438
7.759329
16.210789
21.895792
25.676399
32.447660
31.147729
11.632642
-10.448882
-20.106130
-23.478407
-22.655666
-15.334161
-11.552066
-15.726433
-18.371322
-14.867040
-6.485867
4.516871
13.526147
20.018489
25.667429
31.339416
28.248699
4.517899
-21.790684
-27.772084
-20.371319
-11.598104
-6.018012
-4.238530
-5.204437
-7.360712
-4.223110
1.914786
6.791733
16.620717
25.743417
26.901375
24.421514
11.532150
-13.415001
-28.272872
-22.240677
-14.203514
-15.502193
-16.299494
-13.616934
-6.428521
5.023364
9.940863
9.174489
12.656791
20.524501
28.537769
34.457073
26.467234
-2.280855
-23.952281
-20.126488
-11.747408
-14.049857
-21.943349
-22.166761
-12.966552
-4.953757
2.213155
6.028980
9.217356
21.943565
34.041894
36.875740
26.341166
2.126495
-15.174591
-16.924561
-16.375519
-20.106160
-19.232139
-10.147219
-5.456835
-8.259366
-11.047221
-6.026993
5.022012
8.934565
12.498592
25.239359
34.047094
21.101671
-13.795928
-35.959956
-25.874234
-12.271754
-10.345623
-8.409080
-4.822999
-3.659906
-2.823195
3.608794
12.609826
15.241025
19.805569
30.951724
27.797777
-0.686652
-25.911633
-25.462907
-22.686392
-27.434706
-24.931994
-18.184061
-11.776168
-7.125539
-1.761692
9.730993
20.604862
28.424414
39.139076
48.692465
42.140937
18.799670
-2.349264
-14.381781
-20.296664
-17.893804
-9.504442
-6.783678
-14.375236
-7.231543
22.671351
36.088847
17.854073
-6.684280
-21.856592
-27.730612
-21.150498
-10.408336
-16.385502
-26.737324
-19.878895
-8.866385
-1.457927
6.029455
8.888055
12.423460
21.674153
30.301698
35.107983
32.704602
15.222963
-11.610060
-24.338795
-18.282002
-10.739349
-11.429341
-23.961125
-31.691405
-16.097201
0.973293
4.152783
7.656049
14.284537
20.153166
27.425540
28.114100
10.617774
-13.105951
-21.088330
-16.317371
-12.158467
-8.848899
-5.801879
-8.145946
-13.146360
-7.852711
8.009212
18.380015
19.960406
24.027931
29.350876
21.653262
-0.920993
-20.845945
-23.881065
-16.028977
-9.497074
-7.967162
-10.208931
-10.298411
-3.998201
3.169804
9.078398
15.548158
19.954558
23.650223
23.140291
8.339732
-12.405959
-21.543251
-18.804203
-14.250309
-13.408523
-15.659195
-15.831601
-8.760032
2.884921
9.384587
8.515136
10.394850
21.068619
31.538298
27.280276
6.120591
-15.253163
-19.758418
-12.710724
-8.734306
-10.037637
-11.207668
-7.911711
-2.961308
0.268197
3.116369
7.184349
16.348977
23.338000
16.798261
1.141075
-14.732243
-19.489545
-11.390311
-6.275199
-8.554404
-8.951271
-5.607442
-3.823279
-1.660016
7.195036
16.195431
20.195118
22.837091
16.724366
1.778419
-10.325938
-18.037062
-17.691560
-10.156006
-7.814252
-10.786583
-9.908568
-0.851064
9.619611
12.667705
18.277478
27.947613
20.724876
-2.066291
-18.088766
-19.171308
-12.767071
-8.258077
-6.341954
-2.779469
1.002786
1.843677
3.904272
13.304360
26.667905
32.359622
18.864912
-6.850303
-19.952458
-18.045795
-15.802609
-14.013883
-13.179362
-13.791551
-9.348809
-0.162532
7.837442
14.508474
24.388353
38.058722
43.602398
23.731205
-11.508385
-31.483683
-31.696450
-27.936140
-28.099978
-31.097845
-30.495223
-23.800897
-14.945649
-7.919245
-3.885479
1.736266
10.077501
16.579606
24.157764
35.280643
45.287552
55.899538
62.504856
44.668609
5.312516
-23.314323
-28.223143
-25.170903
-27.726820
-34.584324
-36.894539
-31.450018
-25.410027
-22.670736
-19.086445
-11.348465
-1.109038
7.344397
15.330295
23.752721
29.506182
37.336833
48.473947
46.837905
21.008976
-9.707532
-22.323119
-24.853761
-27.570245
-27.989784
-27.481342
-23.721507
-18.493380
-15.899771
-7.215569
3.653167
5.128732
5.968052
12.828292
19.180192
23.991741
31.472596
39.591667
35.495607
12.814271
-13.009812
-23.937988
-21.929831
-19.531804
-18.182506
-16.750880
-18.364753
-18.410552
-11.520691
-1.072402
5.174368
7.796033
13.818111
22.143872
26.563434
20.180114
5.370746
-7.201300
-16.805936
-20.461052
-14.084694
-7.261376
-6.158733
-9.629399
-11.433408
-2.216969
9.708479
13.027291
17.940737
27.898492
29.975447
19.400987
-0.529610
-18.100827
-23.435247
-20.814183
-13.307796
-6.498779
-7.112668
-10.570719
-9.474502
-0.952014
8.710358
15.049277
22.774173
29.359774
24.335661
4.753647
-15.502224
-22.392813
-20.317005
-13.956173
-3.602162
0.117029
-6.028084
-8.550927
-1.468385
7.820349
13.804011
17.502880
19.733427
13.840018
-5.109076
-20.507235
-20.493716
-15.990558
-6.712084
1.690593
-1.458376
-2.216435
0.475745
0.938899
8.588534
21.665378
28.257565
18.659505
-0.516756
-12.826662
-15.468264
-11.672025
-6.496673
-5.990792
-7.393800
-4.332716
-0.076491
1.810709
6.974314
15.461864
22.467400
16.392000
-7.084374
-23.934640
-23.357118
-15.827838
-4.377819
2.058571
-1.699463
-3.810695
1.727959
10.473332
19.284823
24.789149
17.591404
-1.118221
-14.633094
-18.246011
-16.466040
-12.075532
-8.001258
-2.609640
0.970558
0.293441
0.351119
4.281348
14.135055
22.707216
14.701876
-8.121445
-20.627583
-12.916235
-4.226164
0.666987
2.197784
-6.037725
-8.972181
-3.371340
-0.231291
6.824425
20.612906
27.671118
10.966456
-11.966099
-13.699063
-10.929658
-9.746213
0.937941
4.185472
-2.383373
0.185063
7.119442
10.335277
19.061253
26.963454
17.056333
-3.459912
-15.092343
-18.469266
-18.311028
-7.729825
-2.603672
-11.551117
-10.027229
0.539549
3.260608
4.996419
16.441155
27.986526
20.810050
-0.831620
-18.591547
-21.515749
-13.521199
-8.571915
-6.493926
-5.281115
-8.081725
-6.758019
0.663357
8.751286
15.300395
19.161249
23.107807
18.449694
-2.227583
-20.928265
-23.370427
-14.961230
-7.689012
-6.508108
-6.514082
-7.750168
-6.168629
3.068888
7.820492
7.076373
13.940711
21.928507
18.366292
5.952212
-10.621090
-19.023706
-6.788804
3.711043
-5.216543
-14.004335
-11.802515
-4.619111
0.945879
4.460869
12.863281
21.018258
21.676141
12.128098
-6.896120
-19.574127
-18.728131
-11.120492
-4.632881
-5.674284
-6.654661
-1.613970
5.578672
13.322224
17.036802
20.193504
28.164611
21.944666
-6.292076
-24.814212
-18.311330
-10.728685
-10.878742
-10.334099
-13.408302
-17.519461
-9.078699
9.252796
16.360283
15.483407
29.555269
38.421348
17.699450
-8.795200
-21.146317
-22.481191
-16.663609
-10.705741
-12.247127
-18.072904
-14.770004
-2.136664
6.549958
11.309418
17.278220
24.679782
31.781544
22.883379
-5.543302
-21.638136
-15.953934
-14.716208
-15.784785
-9.012441
-9.475044
-12.864168
-5.272401
5.152800
8.963200
12.547622
27.300513
38.166722
24.062315
-2.031295
-21.536202
-29.516034
-24.014635
-10.934239
-5.258692
-11.643596
-12.366366
-1.026843
9.493234
15.225146
13.832047
13.818942
25.252666
25.867952
1.825553
-20.741236
-19.856025
-12.087647
-10.212973
-6.262251
-11.084585
-18.608987
-6.570421
7.427927
7.018347
10.026113
28.247326
41.140143
32.617108
14.245065
-8.823312
-24.169994
-18.860987
-13.629656
-16.360066
-18.102189
-19.111385
-14.601388
-6.515849
-0.230589
4.175535
10.106926
24.197724
36.362063
32.635822
17.372184
1.197779
-11.022319
-17.872453
-19.504279
-21.276460
-20.875924
-16.129531
-17.765349
-20.117610
-10.028920
7.333330
18.177145
14.003229
12.290621
26.548722
38.739928
36.711406
15.785507
-13.814731
-22.796506
-14.532400
-12.152024
-15.226402
-15.045672
-14.297998
-17.358826
-17.119317
-7.940456
4.898871
12.641549
13.162064
16.460107
24.485829
26.459515
14.113697
-7.129455
-19.648267
-21.876286
-18.651747
-9.783624
-7.900039
-12.880018
-7.504658
4.892004
8.201950
6.081284
12.176223
23.820312
30.928472
25.847484
3.416995
-19.544718
-21.738753
-12.948196
-11.391986
-16.744260
-17.046583
-10.169938
-4.028056
1.609883
7.280858
12.922784
19.849170
28.034030
36.087911
26.177060
-2.685927
-20.401793
-24.232213
-24.814425
-16.505525
-8.696958
-9.496028
-10.625338
-10.215102
-4.957400
5.173324
13.880919
22.932860
30.796843
35.196822
30.008307
5.609891
-21.374622
-28.033962
-20.375043
-15.412133
-15.666434
-18.344448
-21.043657
-14.885230
-3.898505
1.998897
8.095424
13.846539
18.733978
31.166067
38.516273
22.462563
-5.177313
-20.097542
-19.575921
-15.583368
-11.684247
-10.903644
-14.875942
-13.753269
-4.767485
3.308501
8.166395
11.878712
16.576790
25.461727
27.892024
14.233148
-5.094251
-21.850273
-29.710559
-21.222638
-8.285372
-8.537409
-15.558718
-13.958689
-5.800018
4.912286
16.564539
21.862497
24.825803
34.387678
36.576579
10.221609
-22.303205
-26.341094
-17.382633
-13.671581
-9.200645
-7.556921
-10.194930
-8.238144
-0.027047
7.697992
15.019284
21.381143
24.561431
31.099349
27.300473
0.511960
-26.297337
-32.472869
-20.569701
-11.183050
-15.610832
-19.609883
-15.732080
-5.886269
4.683258
10.498236
19.156302
27.568177
27.294124
24.080811
13.076723
-9.464105
-27.509763
-28.878297
-17.556738
-8.778979
-10.604282
-11.836751
-5.455365
-0.921357
-0.463593
4.253155
12.850753
20.620146
28.761083
33.900284
21.478408
-5.688756
-21.841892
-23.188177
-19.263947
-10.401556
-7.604725
-10.828758
-8.020987
-4.252245
-0.517175
7.284577
14.327087
20.387589
25.726536
18.739742
-3.600737
-20.014789
-21.602978
-20.904060
-16.517292
-8.897955
-8.527610
-8.303856
-1.888410
4.670019
10.073228
19.026746
30.350110
35.921214
37.344557
26.398653
-4.876713
-27.301783
-27.382922
-22.979537
-17.103771
-11.287679
-10.463516
-8.020264
-1.919413
2.205559
6.420768
14.367461
23.161184
32.864256
32.645554
7.434710
-21.433776
-26.900061
-21.178372
-21.514125
-21.893701
-18.122659
-14.817306
-8.239356
0.568450
5.309340
12.759398
21.847767
25.404780
29.542270
31.995861
21.218685
-1.324203
-19.025343
-23.170767
-22.731168
-18.565556
-12.092668
-12.671404
-14.881075
-11.139008
0.508435
12.408311
14.774990
20.887457
32.849991
30.558729
8.476006
-18.615677
-30.302525
-25.848300
-16.473508
-10.035741
-12.455678
-15.310664
-9.944209
1.108941
14.962582
23.870663
24.758058
26.453940
31.801414
31.674477
12.539967
-16.059024
-28.716826
-27.305942
-20.856011
-15.434150
-20.984608
-23.796512
-12.719297
-0.901085
9.584088
22.761190
27.873940
26.090007
32.384915
37.031815
20.670647
-7.040004
-26.130434
-31.409081
-25.614912
-16.870609
-11.825254
-11.046684
-14.823596
-12.148342
0.947808
8.084471
10.151232
15.940755
23.564866
31.574369
28.824073
9.636702
-11.684549
-20.629359
-18.233647
-16.530879
-18.597809
-20.692461
-19.496035
-12.526381
-5.221062
0.677717
8.003006
14.918032
19.654518
20.336144
26.434269
35.680486
16.764660
-15.989875
-20.432896
-11.773795
-10.080026
-11.267211
-20.699937
-26.361199
-13.134799
-2.080623
-3.956561
4.445275
18.666252
21.844772
28.178427
35.231279
30.555886
16.228882
-5.710746
-21.262842
-27.498194
-28.532634
-20.079869
-15.946907
-20.015961
-19.775693
-12.818142
1.966005
15.271848
18.424790
21.033295
25.074276
29.939426
33.602728
18.090256
-10.401734
-23.920370
-22.980880
-20.326125
-16.067181
-13.989459
-18.210179
-18.781480
-11.152389
-4.393683
1.040105
9.662974
21.037200
29.418674
34.516573
45.702055
41.300843
3.621369
-27.092108
-24.456620
-13.521635
-15.432188
-21.682258
-21.646570
-17.331330
-13.769689
-14.245713
-10.656091
4.507324
19.820971
23.664269
22.694166
27.713944
29.485072
11.648315
-14.136838
-26.234234
-24.934162
-15.364155
-6.134690
-10.717790
-21.192259
-19.873640
-4.081302
10.403870
11.681740
14.578795
25.667736
34.106124
34.909956
13.973941
-21.768493
-33.972525
-24.112086
-17.620308
-11.888334
-5.776363
-7.627536
-12.659617
-9.964051
0.134484
10.055702
16.155066
20.447937
31.848378
41.707081
28.492728
0.619987
-16.824076
-18.113482
-19.258731
-23.087130
-15.202377
-5.134998
0.524756
13.331608
21.560503
20.351793
25.813450
25.167907
1.452956
-21.146708
-23.509483
-22.012449
-20.963861
-14.280490
-13.907518
-20.306564
-19.395615
-9.214982
1.804007
8.367908
13.940390
21.727678
31.866573
38.250477
23.636627
-4.783667
-17.417684
-17.589970
-16.803312
-9.597603
-7.503126
-13.199604
-9.023484
-3.127215
-7.254111
-6.224972
5.522549
19.324201
31.487328
31.259965
12.839376
-8.999442
-18.257504
-15.378611
-14.537404
-15.284928
-10.194737
-8.221745
-8.772252
-6.333385
1.261236
16.809641
26.643272
28.457416
32.925430
28.477507
6.315658
-18.533847
-29.489910
-23.670415
-12.989020
-11.313514
-16.424084
-18.373824
-13.749973
-1.680009
11.205822
15.298931
16.866169
28.128640
42.463778
32.520928
-0.715796
-18.430994
-17.579786
-17.251613
-14.617023
-17.033881
-25.104887
-21.843880
-9.692218
-0.535776
0.214062
-1.289868
9.909813
30.181684
40.884205
36.258529
21.641948
1.559562
-15.944271
-23.291172
-23.569243
-20.031542
-13.978654
-11.986894
-13.035117
-8.332706
0.619384
6.004002
10.193229
15.459555
18.196374
23.077320
25.687223
12.296599
-7.346486
-18.995789
-26.174194
-24.941359
-13.149594
-8.262548
-13.531406
-14.493780
-5.647781
7.583146
14.756633
15.116306
18.704448
28.254058
35.941059
28.643844
2.703952
-20.173553
-23.039755
-18.083568
-15.268360
-15.203818
-16.628956
-13.013238
-8.135215
-6.647041
-1.635556
8.556341
17.657269
25.734422
35.550072
34.339888
14.347628
-8.674978
-23.498400
-27.572533
-21.741586
-17.744185
-18.734116
-12.574944
-0.190588
4.149822
6.281989
17.737366
27.524719
30.814398
30.469552
15.384567
-10.357769
-24.389778
-22.172789
-15.777869
-13.749743
-16.359811
-18.995101
-17.638238
-11.445362
-0.280854
10.795191
13.766210
14.465096
22.028807
27.550663
18.460651
-2.447537
-19.408802
-21.092209
-13.851462
-7.083221
-6.744823
-13.435163
-13.091704
-2.948155
5.686016
11.493055
15.986870
23.070795
33.628418
34.435786
14.008168
-15.944854
-28.874922
-22.313234
-14.731480
-14.489432
-16.394339
-10.778949
-2.719948
1.632076
8.950341
15.035213
17.151519
24.977995
35.046069
26.525886
-1.030649
-16.911293
-17.089878
-20.538338
-20.343311
-13.784305
-11.321357
-9.398361
-6.462666
-5.067807
-0.473942
10.230483
21.122758
28.705985
34.837224
26.165958
-1.452899
-22.188692
-22.779769
-15.390012
-13.225445
-15.031296
-16.196080
-17.648850
-12.133021
-2.102924
3.213328
10.058367
16.993982
21.083550
30.096345
31.258746
3.970397
-28.288672
-27.769435
-10.213503
-5.884698
-7.410592
-6.627947
-10.774769
-13.109490
-2.196547
10.555472
14.284066
21.376939
32.238282
26.128046
2.522603
-17.709913
-24.391280
-19.780445
-10.852382
-9.401719
-14.308786
-11.362820
-2.910552
2.484516
9.963637
19.506400
27.985048
37.966942
38.338952
15.443233
-12.209984
-19.844308
-18.051078
-19.993221
-19.478752
-16.068899
-11.591995
-5.960992
-3.031150
-0.904068
6.556994
19.295721
29.869062
32.827777
24.559257
2.360030
-18.333422
-24.054984
-22.812658
-18.153396
-13.897086
-16.550909
-18.215157
-12.777130
-2.923669
8.306203
16.762695
18.551872
18.662349
26.854551
30.384804
10.981524
-15.373393
-25.413771
-20.234322
-12.528928
-11.918925
-14.451688
-14.787888
-17.325518
-12.454807
4.406974
13.693515
14.760308
24.448722
33.795875
17.622268
-11.995416
-19.936308
-12.427957
-8.243655
-1.931539
5.763085
10.711780
15.727143
21.675871
33.023322
43.390138
31.371855
0.243658
-21.795998
-26.362330
-24.012769
-21.939464
-26.103274
-30.903092
-25.042226
-15.596735
-10.542077
-3.881974
7.683708
18.734292
26.057067
32.859533
35.618434
24.375021
1.484403
-19.004067
-25.561220
-20.992735
-16.971562
-14.704473
-13.702832
-17.287981
-17.391714
-6.339179
5.942009
9.564712
11.514879
16.886223
25.888679
38.541095
36.531248
8.743225
-19.627738
-25.261743
-19.016268
-16.442408
-15.222236
-15.468589
-15.623368
-10.392740
-4.471758
2.352577
9.248940
13.053588
17.328121
22.057639
26.803961
20.396949
-0.028940
-14.395631
-20.680540
-20.431357
-10.759501
-7.129907
-12.579128
-14.372889
-9.621611
-0.965898
10.329185
19.601630
22.306746
27.226019
36.609245
34.361689
16.432291
-5.501453
-19.506503
-22.833814
-21.864696
-19.242595
-17.071415
-15.450361
-12.226691
-10.763743
-7.268905
2.305744
11.104658
18.195914
29.092692
34.067909
13.322413
-16.200762
-21.002069
-14.961708
-17.915538
-19.366973
-15.244037
-7.340798
2.675358
7.957089
13.156417
21.028424
25.867254
28.976123
19.118973
-6.830709
-25.792574
-30.239298
-21.909325
-5.493250
-2.521248
-15.398069
-19.827541
-8.920813
1.454763
5.793513
10.594655
19.658958
32.222939
33.575456
11.090503
-18.912747
-29.920857
-18.311251
-7.405412
-6.990119
-4.717277
-4.285212
-7.153894
-2.584421
9.817350
25.138137
34.618050
36.897751
30.015506
3.661918
-23.033522
-25.761309
-18.551441
-13.516679
-8.068620
-9.403947
-13.585930
-10.877553
-3.953886
6.795064
17.438183
25.610526
35.164741
35.946689
15.234438
-13.241285
-22.870978
-17.749363
-13.999993
-12.473313
-17.266633
-17.687546
-8.427364
-8.533938
-7.522785
6.676001
19.437576
28.254293
34.566083
31.621783
12.091926
-14.635523
-25.655727
-22.140463
-17.911863
-15.678401
-17.901704
-21.389847
-17.315240
-7.221639
2.332152
7.701739
14.383227
30.275676
41.663109
28.086646
-5.146496
-26.859665
-21.209388
-10.588915
-9.731712
-11.253177
-11.298791
-8.060372
-0.472205
8.897208
13.070418
12.215777
20.946815
35.219245
29.639074
5.452834
-12.030609
-15.949887
-15.143658
-12.660920
-13.590092
-17.507092
-12.951980
-7.925613
-7.337015
4.644502
19.445926
22.177626
24.829201
35.350816
34.187772
6.922166
-20.909766
-29.906036
-30.249225
-23.851898
-13.303462
-9.800139
-14.045127
-14.388060
-4.829265
7.411455
16.112193
16.273983
18.329241
34.347273
37.655464
13.119787
-12.263763
-22.706622
-22.873992
-18.331018
-16.151259
-19.686972
-19.532743
-12.629474
-12.519681
-11.010528
4.743348
15.742289
17.637038
25.550533
33.945102
23.364995
-7.955850
-30.241292
-27.857693
-18.782194
-13.328809
-9.654178
-5.502490
0.237723
3.266818
5.668064
14.499374
22.650807
25.748035
32.067990
29.722912
7.145183
-15.974480
-23.646823
-17.171552
-6.805213
-4.859790
-6.967812
-5.692445
-4.024315
2.523275
14.064250
17.495184
20.824932
31.491705
21.872047
-10.642406
-30.546475
-29.133070
-19.341334
-10.636282
-10.584914
-14.570054
-12.796906
-2.028705
9.736171
14.168449
20.295763
31.985599
38.333181
27.787232
-0.975925
-22.367616
-22.951150
-22.337012
-23.106832
-18.376194
-15.292358
-15.893116
-14.284332
-6.790764
2.854081
11.228426
18.276531
23.861388
32.519377
41.437629
31.499705
0.197278
-23.998785
-28.030305
-23.203554
-17.298160
-16.558855
-17.970933
-16.154026
-11.557479
-2.904163
2.277449
6.714705
16.973202
22.316023
27.243382
37.677402
29.794678
-3.088992
-26.065833
-25.598919
-23.286384
-20.869902
-12.949187
-10.259684
-10.095548
-6.995772
-5.319204
0.240806
9.582814
15.243823
20.689021
30.369210
34.527526
20.411746
-2.940116
-21.777219
-30.747156
-22.392166
-7.449487
-3.291914
-5.766443
-5.264867
-0.322431
3.523559
6.298181
14.172335
24.656571
30.377429
19.739061
-5.494186
-23.936463
-28.567526
-23.535735
-12.043454
-4.664689
-9.240282
-12.478772
-1.628597
7.425825
10.648020
20.743674
34.234240
42.779924
31.424672
4.090633
-13.986517
-23.368487
-27.426151
-25.172653
-22.593105
-15.297047
-7.561364
-6.865765
-2.419532
13.223019
24.754007
24.991847
32.727352
39.571514
19.809493
-10.220432
-23.921880
-26.002163
-27.018177
-20.896585
-11.596171
-12.554040
-16.445321
-16.525255
-8.449950
11.918929
21.230528
13.851505
17.737375
35.320284
42.585595
22.168804
-12.236110
-28.346064
-23.563433
-18.593344
-18.602490
-14.870950
-11.038643
-15.893035
-16.598826
-4.133860
5.490630
10.092214
18.942772
26.551311
33.943325
35.891779
15.211501
-13.229113
-23.514123
-21.463718
-19.584970
-16.214450
-11.538234
-11.524941
-14.377410
-8.669640
3.754054
8.281903
11.366642
26.420186
39.920097
31.693533
4.115354
-21.160215
-29.326849
-23.400269
-14.484889
-13.789384
-16.454218
-12.881750
-7.606473
-1.619797
9.390489
21.155691
27.975214
35.182955
45.106362
42.647521
19.001033
-11.190354
-27.847389
-29.939977
-27.187850
-20.218612
-13.379504
-12.022333
-11.950991
-11.035737
-4.955705
7.647448
14.772939
13.233998
21.768825
41.430157
36.239944
0.837233
-25.197619
-29.574212
-25.795828
-16.352976
-7.898858
-12.875633
-21.877207
-16.406294
-3.236649
5.939679
12.177639
15.904983
23.587464
37.588465
42.849690
21.244397
-17.397500
-35.466385
-27.303660
-14.986878
-8.081231
-9.456358
-10.423003
-6.309646
-4.970732
-6.355271
-1.228816
15.319579
28.904418
33.432053
29.798282
5.291890
-20.528765
-22.491016
-17.414570
-15.184966
-10.841080
-10.203123
-11.589415
-6.670183
0.321356
4.872925
11.792652
21.285218
31.529587
38.059144
26.349128
0.970327
-18.324349
-27.217212
-25.257829
-16.699846
-8.906562
-4.145077
-5.962655
-8.003186
-2.605604
5.988668
12.797055
18.525057
30.899995
44.539817
33.533880
-4.060288
-31.729414
-29.237751
-21.612556
-24.906644
-21.864757
-13.526978
-12.834284
-13.980419
-10.396231
2.238431
19.163112
28.000889
31.550159
36.768115
32.655133
7.156777
-17.220833
-21.404832
-24.366491
-23.087646
-7.925850
-5.459433
-14.344256
-10.378747
-2.984051
-0.694170
6.718488
14.230763
14.484908
22.947365
35.097038
16.772529
-22.088251
-36.726514
-25.342231
-11.238641
-3.581038
-7.634123
-13.068731
-5.149958
5.766394
8.844324
11.118601
18.442042
26.933120
31.992968
25.059336
2.018310
-19.164498
-25.129349
-20.310439
-13.377319
-15.308334
-21.587766
-19.243374
-8.511821
5.629410
15.018213
16.606793
21.437559
35.147898
45.967699
36.137624
5.231777
-22.508711
-28.408887
-22.481661
-19.977654
-18.981722
-15.492471
-12.586448
-10.364551
-6.280402
0.691563
11.268092
21.596559
30.025387
41.003707
41.509681
15.506524
-18.392197
-34.398719
-33.453955
-24.082308
-14.679108
-17.126442
-22.568500
-14.707587
-3.169014
0.255154
2.363930
9.893648
18.984954
31.951317
45.363954
27.774414
-12.286582
-24.051366
-13.772878
-10.722307
-12.028945
-14.882573
-17.050231
-13.339778
-5.857932
-0.461127
5.374921
18.107488
32.127528
38.801543
27.271993
0.342582
-17.844827
-24.351433
-27.466043
-24.083444
-17.380580
-11.087094
-6.847407
-5.368117
-0.992494
11.414341
26.152894
28.206261
26.508049
41.752747
47.602573
16.223754
-17.574985
-25.013171
-25.195848
-25.612652
-19.857931
-16.727199
-17.308007
-13.248324
-4.738733
4.666994
10.859249
14.136129
21.337605
32.649588
35.711963
16.550888
-15.821450
-31.454694
-27.259913
-26.392022
-25.955849
-16.387940
-13.900753
-19.343498
-14.122463
-3.703427
1.502351
12.301134
26.426464
28.719030
29.019045
41.420216
47.117167
22.151062
-15.244377
-28.429972
-21.992802
-18.646524
-15.712264
-14.438981
-19.011518
-18.878387
-13.806189
-5.080172
7.433394
13.018918
14.185190
22.099061
32.498399
27.863372
2.379730
-22.538328
-31.397127
-25.651978
-11.534145
-5.769962
-10.714292
-11.677939
-7.763966
-3.058217
3.159384
8.443297
13.904125
27.736434
45.456597
46.936932
26.017528
-3.139994
-23.490011
-31.588030
-31.095031
-20.424090
-11.669194
-12.519232
-9.138245
-3.007751
1.240405
11.325802
18.898352
19.424467
27.846758
37.231741
21.667172
-10.598087
-28.946956
-28.275993
-19.665795
-12.156468
-11.258552
-14.946934
-17.110376
-10.519492
2.126116
10.898747
18.222007
29.159824
37.587630
27.754989
-1.882190
-22.519447
-23.223445
-19.044071
-13.838293
-9.895707
-7.779099
-5.392033
-2.429109
5.792576
13.931805
18.777273
29.152406
33.244032
11.382349
-17.730414
-24.573919
-17.575734
-13.392489
-10.988124
-11.180152
-11.727824
-5.528793
4.404266
9.877592
13.146682
25.206194
36.273255
22.473735
-8.970568
-29.440459
-27.731531
-15.848681
-12.977536
-17.970066
-13.977313
-3.510198
1.107164
4.836693
14.127258
21.596478
28.204962
34.832739
18.926531
-16.181077
-30.628723
-19.083580
-8.960460
-8.497321
-10.799919
-10.645477
-5.516285
-1.907099
0.788421
14.213996
32.508811
39.554828
23.516483
-11.156810
-30.516575
-23.005564
-13.799390
-10.360997
-9.885943
-12.050380
-9.997914
-2.621326
8.947657
18.413618
24.433027
37.932383
41.942599
12.257567
-23.039272
-27.042601
-16.614303
-14.880629
-11.832731
-6.467379
-6.885461
-3.743014
7.721914
17.187115
20.618711
27.544159
35.334347
21.762749
-9.084785
-28.610077
-29.926982
-23.872084
-20.597053
-19.579660
-16.486938
-13.589596
-8.460379
2.843698
17.871820
28.876242
32.336381
28.210877
11.288193
-10.653839
-23.568332
-25.400257
-17.063342
-7.451219
-7.435264
-11.740794
-8.974482
2.033602
13.032012
19.884435
27.514831
33.103930
21.381557
-6.029495
-24.610603
-24.924468
-18.832678
-13.249671
-8.876960
-5.728985
-3.231295
0.373473
9.086067
18.644540
26.157165
37.880052
41.581745
19.114350
-14.833996
-30.667312
-23.844581
-14.913123
-17.434191
-23.880187
-21.401138
-10.484719
-0.101892
10.539807
17.998601
19.702032
31.591927
43.210088
26.166213
-7.246873
-26.859464
-27.043619
-23.379798
-23.717258
-23.603858
-21.731767
-14.992579
-4.302246
5.742234
14.069004
18.994241
24.691147
33.829578
40.629385
32.897202
5.565435
-18.522336
-23.594454
-22.369532
-22.390350
-22.529251
-20.328973
-13.545087
-6.846916
-4.991179
-1.751009
11.075133
21.492745
22.644059
28.619694
33.717451
18.532065
-11.239946
-29.108395
-24.766210
-15.545044
-14.556435
-18.246066
-13.710305
-0.473136
1.451637
-2.820257
3.977810
12.783796
19.677370
26.454799
20.906634
1.400441
-13.694421
-15.646278
-15.283408
-14.871244
-10.699630
-11.924266
-13.578356
-3.265927
4.656775
5.023923
12.705689
26.041828
36.437684
41.874121
37.964623
15.895840
-15.445795
-28.689593
-23.681544
-19.173624
-16.474456
-14.962546
-18.206014
-19.678648
-11.440172
0.104535
6.495076
11.183406
19.689839
31.533275
33.311885
14.614610
-11.175710
-24.408340
-19.781166
-13.172428
-17.559814
-21.884519
-17.958068
-8.791104
1.239284
5.522298
7.250205
14.461693
24.331551
32.640305
35.581705
19.916095
-11.385419
-28.165235
-22.925192
-14.854208
-8.184761
-3.775129
-7.839864
-12.780899
-7.722180
4.444748
11.094892
10.212137
15.226734
26.220888
22.613776
-3.108268
-26.409593
-26.888384
-16.737245
-8.742200
-3.950702
-5.834390
-7.847034
-1.692465
6.702205
11.921537
17.849960
29.399809
37.724846
29.833736
7.066906
-17.375471
-25.203718
-17.756400
-13.244913
-14.438421
-14.807933
-13.177772
-10.843213
-3.901611
6.909186
12.699645
18.313081
30.746315
37.329490
21.246532
-7.184220
-21.126142
-21.588491
-18.608502
-10.711828
-8.927997
-14.711636
-13.812476
-7.286231
-2.183971
4.310323
15.075406
21.608299
27.287548
37.950242
27.728466
-2.120869
-19.947916
-25.883211
-24.000805
-16.058544
-13.288203
-15.814111
-16.379958
-11.769040
-8.240851
-0.057773
18.563009
27.233320
23.906161
23.258688
14.864374
-9.317579
-27.033524
-22.312110
-11.672404
-8.261830
-8.367328
-8.584869
-2.677535
7.007419
10.220120
11.229340
17.778112
26.864431
29.305746
15.919210
-7.949831
-23.344408
-23.095219
-13.162165
-4.406448
-10.976148
-21.536496
-15.265042
-2.281400
7.658855
17.190395
22.148848
27.255127
37.445736
32.031068
-0.007795
-26.788775
-26.636774
-17.427284
-11.981642
-8.630787
-9.062784
-11.277564
-8.249969
-0.630680
6.288820
13.521561
20.280705
26.217236
33.579625
23.577532
-8.497827
-25.931863
-20.549836
-16.363642
-15.857856
-12.348711
-10.551465
-14.354610
-11.941817
-2.166997
0.762367
4.542306
16.880206
29.717670
36.687831
26.216721
-0.548361
-23.285317
-30.626063
-22.603521
-8.547704
-2.740245
-5.781563
-8.216578
-5.441861
2.901690
12.184397
14.196528
15.641561
24.676018
20.692314
-5.919886
-27.410889
-26.516827
-14.125071
-7.872915
-9.581037
-9.060233
-6.208984
-2.261362
2.946941
8.605309
15.924438
25.516042
40.427617
48.493172
27.538418
-12.551275
-34.320021
-27.626729
-18.285468
-16.489463
-15.829303
-14.319390
-6.815425
1.007429
5.767086
15.704668
21.898932
24.809815
34.813410
27.730200
-6.460226
-29.787564
-23.349681
-12.575721
-15.022224
-17.181197
-13.881556
-15.397645
-13.688158
1.147843
15.801469
20.580260
23.773636
30.812032
35.732444
26.143338
-2.546540
-31.467675
-36.451377
-20.741947
-10.578120
-17.211079
-22.214795
-13.940278
-5.488532
-1.714767
2.402317
6.836403
18.995841
33.698474
27.025303
3.521353
-9.323194
-13.034277
-19.053799
-14.414031
-4.522126
-8.001877
-11.300975
-5.205699
0.525586
6.259444
14.306309
22.498041
30.850430
31.491370
10.163878
-19.768218
-28.140042
-18.117947
-9.573622
-5.968972
-5.538789
-6.817168
-4.060241
5.346295
12.684520
15.209162
24.995060
30.846739
8.282156
-19.881960
-20.075468
-10.345398
-10.714061
-10.594432
-10.219983
-14.238043
-11.240199
1.495586
11.711754
20.594510
35.758213
36.139438
8.530049
-18.794419
-28.051313
-24.606676
-14.222014
-6.758616
-2.950849
0.672228
2.013901
9.173045
26.449186
42.190130
39.738536
14.366732
-12.404527
-23.261937
-22.500845
-15.826044
-12.101557
-13.421887
-8.588933
-1.526710
-3.192082
-0.000351
22.856493
45.299888
38.022693
3.571260
-27.590013
-33.592424
-27.127103
-26.465792
-30.104269
-32.061225
-26.818703
-19.027988
-17.312530
-11.803706
2.775418
15.237156
26.704198
38.166066
36.333556
34.919806
54.157728
67.629815
43.293296
-4.637237
-33.075858
-33.826404
-35.814778
-38.307211
-30.821037
-26.760553
-27.320731
-25.782045
-19.801660
-7.021299
0.935596
2.916655
13.813743
28.492018
32.670615
30.798080
40.817971
59.682440
54.477692
15.622524
-19.060065
-27.466684
-30.234330
-34.951744
-32.678339
-29.183816
-30.694129
-31.659897
-24.211376
-11.622951
-2.488949
5.851087
16.922783
26.123039
32.297964
37.167853
44.735911
50.489145
31.095957
-7.889798
-29.021639
-28.054710
-25.214854
-26.348674
-29.157259
-30.810139
-27.133080
-18.032950
-8.962942
-0.745947
7.754406
15.654596
23.398369
27.113959
31.604843
41.636183
34.895893
1.145451
-30.583911
-35.831659
-21.874766
-9.402442
-9.437109
-18.382607
-21.384087
-11.900588
-2.351291
2.946032
8.100307
14.244510
26.384433
40.160100
37.538391
9.069485
-20.920137
-26.085452
-20.909991
-16.627223
-8.951569
-4.079370
-1.598691
-2.891330
-5.184196
4.200585
14.897830
19.506327
30.550836
37.516657
16.666915
-17.742453
-32.067601
-29.644547
-23.088452
-7.382296
0.528377
-8.710212
-8.125860
3.282430
7.664070
12.753210
24.428962
35.307644
27.281850
-5.009194
-27.874132
-25.589988
-16.032931
-8.283814
-3.809492
-6.174892
-14.969165
-9.722459
12.191355
18.191365
17.577196
33.714005
34.624043
3.417008
-25.514571
-31.467673
-22.665544
-9.293399
-4.980402
-11.118404
-4.683008
11.684910
10.885227
2.118028
8.749807
24.410750
26.851980
8.463651
-9.732281
-16.191957
-19.075167
-14.950456
-6.542313
-2.464104
-3.896466
-8.516944
-5.776180
2.575917
10.598231
22.350881
29.684669
19.108864
-7.210723
-26.120995
-23.040259
-10.949744
-1.286397
-1.452200
-9.932162
-8.541288
2.991342
11.803655
16.830105
21.124417
23.337689
11.405279
-14.317632
-27.588545
-19.908140
-7.864985
-0.758636
-0.982029
-6.193252
-5.608874
4.461891
12.502559
12.602574
16.990839
26.776372
20.936100
-4.039079
-21.240629
-18.065394
-8.885918
-0.238067
1.497172
-10.670072
-18.243045
-7.442552
8.104987
12.610735
11.455946
21.535569
29.929814
11.327351
-15.704600
-22.080768
-17.578518
-14.872282
-9.805438
-8.137718
-11.614854
-8.768002
-1.835641
2.715503
9.214985
19.226655
27.588718
28.637402
18.530544
-4.798945
-26.344091
-26.277906
-16.256914
-10.908770
-7.179535
-8.267347
-9.524775
-3.345898
2.351635
7.088568
14.289656
22.755903
30.455090
22.698603
-0.399607
-13.539206
-15.143255
-18.254905
-15.272023
-7.374012
-8.432893
-11.004879
-5.468531
0.412197
5.093299
12.952235
21.429464
26.981358
23.377748
5.252682
-15.283511
-20.113078
-13.939824
-9.144080
-6.563417
-6.766221
-5.500185
-0.092274
2.514273
5.274286
13.589585
19.455026
21.565279
25.339538
19.469651
-1.226785
-19.174344
-23.366574
-20.301316
-19.532907
-20.552897
-17.933684
-11.522442
-6.254619
-2.427839
7.249132
17.360063
19.847580
24.880584
33.759414
26.411204
-0.613642
-21.855446
-26.240211
-22.684171
-12.502963
-4.856102
-9.469611
-13.777041
-10.872137
-5.027822
4.998323
16.315796
24.247239
28.763987
32.036992
30.085497
11.679555
-12.318714
-23.294468
-25.522783
-20.652373
-12.186455
-14.655149
-18.446603
-7.794417
1.317898
-0.937798
2.451278
13.592077
19.942181
24.573340
30.188865
21.029185
-7.151184
-30.692163
-30.186736
-15.025691
-6.287442
-9.814942
-15.636795
-12.335194
-2.030521
3.756882
7.128646
16.442739
28.009154
36.325143
33.318868
7.713744
-22.637399
-26.817369
-13.966998
-8.057576
-7.610506
-7.536859
-10.798041
-10.742844
-1.638723
5.239422
8.858274
22.844169
40.180987
39.416691
13.575135
-18.112943
-29.412197
-23.565141
-16.273044
-10.778879
-10.690632
-13.383226
-10.042908
-1.901547
6.307999
13.690531
21.821763
31.567210
32.556734
10.473558
-18.058649
-23.848571
-18.260938
-18.703024
-14.004254
-6.534504
-6.608250
-4.905440
1.228719
6.786628
12.722779
19.385893
27.682064
27.095797
6.401832
-18.323899
-26.931802
-20.061150
-9.499162
-5.717203
-8.046725
-8.664965
-5.294110
1.720315
11.217302
22.238199
34.337004
31.972501
4.686546
-22.081275
-26.558625
-19.836294
-12.725000
-6.198848
-3.362539
-2.953432
-0.670880
5.311777
13.009056
18.382376
23.532246
24.947051
10.376488
-15.340260
-31.597654
-27.254762
-13.848250
-7.240436
-5.456268
-6.324402
-9.281448
-6.064996
2.736042
11.864527
22.563233
35.030892
35.489921
11.635149
-16.783861
-27.127511
-21.816191
-7.359303
2.883184
-3.736117
-13.890043
-11.687255
-2.196769
9.215786
22.600439
24.538609
17.956963
22.655254
17.525032
-12.707076
-33.494605
-28.139703
-12.828435
-3.536591
-7.708647
-16.070124
-13.784909
-3.435872
3.300907
8.823807
18.542251
28.496339
36.155638
28.252794
-5.043328
-33.767994
-31.432632
-15.587822
-5.372851
-3.720419
-8.837481
-6.663193
4.355765
7.542462
7.952710
20.253052
31.066680
24.102027
7.897014
-12.980076
-30.930806
-26.498461
-13.104553
-6.690992
-1.604554
-6.620840
-13.438444
-2.373211
12.868070
14.641759
13.284331
26.962972
36.689955
14.920040
-18.506910
-35.302097
-28.801629
-7.512468
3.422318
-2.519640
-9.077696
-9.355850
-0.729770
13.405167
22.337561
29.722423
44.917223
48.802055
17.248905
-22.046892
-34.809886
-29.433808
-19.817052
-17.073344
-19.400417
-14.698427
-12.831638
-15.067521
-6.964090
7.107796
12.595033
13.165514
23.940703
32.935818
27.861722
19.067041
0.648214
-23.963194
-35.128398
