---
Mammal:            human
Fs:                6.118225e+02
Integration_level: electrocardiogram

Channels:

    - type:   peak
      name:   interval
      unit:   index
      enable: yes

---

13
461
825
1192
1597
1975
2360
2706
3065
3485
3953
4303
4749
5170
5611
5986
6439
6828
7326
7754
8109
8523
8905
9369
9736
10129
10456
10967
11434
11855
12282
12711
13123
13582
13975
14329
14686
15115
15545
16013
16555
16956
17460
17903
18383
18831
19259
19621
20003
20439
20835
21151
21415
21880
22313
22681
23095
23500
23940
24359
24727
25147
25491
25854
26271
26686
27086
27415
27773
28185
28594
29047
29422
29816
30145
30597
31006
31375
31765
32142
32411
32943
33254
33678
33962
34461
34844
35295
35690
36103
36440
37176
37660
37956
38263
38623
38915
39248
39616
39927
40213
40545
40886
41313
41630
42072
42328
42804
43163
43408
43845
44195
44702
45120
45491
45795
46270
46554
46985
47228
47669
48066
48437
48769
49068
49391
49772
50050
50264
50506
50756
51080
51264
51571
51813
52073
52297
52688
53017
53275
53491
53739
53973
54198
54539
55006
55379
55725
56022
56369
56711
57068
57468
57783
58023
58404
58735
59102
59488
59846
60216
60517
60778
61140
61603
62033
62362
62727
63077
63406
63880
64228
64632
65010
65617
65980
66448
66826
67268
67502
68016
68454
68814
69249
69667
69969
70414
70724
71181
71525
71985
72300
72554
72789
73007
73298
73660
73887
74227
74554
74811
75068
75403
75679
75989
76229
76480
76732
76870
77366
77755
78247
78590
79045
79308
79773
80103
80537
80801
81080
81501
81881
82279
82638
82930
83350
83834
84147
84415
84769
85147
85487
85860
86220
86763
87116
87535
87993
88440
88836
89226
89560
89956
90329
90751
91130
91492
92008
92329
92817
93194
93660
93967
94332
94733
95118
95495
95910
96336
96712
97106
97507
97911
98314
98632
99124
99541
99921
100291
100624
101296
101689
102162
102680
103073
103520
103823
104270
104650
105107
105538
105933
106350
106785
107195
107624
108031
108419
108842
109303
109753
110251
110692
111143
111552
111931
112467
113026
113507
113924
114307
114695
115121
115515
116008
116344
116731
117034
117459
117886
118362
118818
119211
119568
119980
120344
120733
121075
121513
121952
122430
122843
123175
123521
123935
124336
124933
125448
125832
126244
126602
127026
127442
127887
128270
128721
129138
129535
129912
130324
130775
131227
131708
132115
132541
132880
133285
133641
134113
134548
134974
135287
135716
136117
136587
137011
137447
137881
138372
138759
139202
139573
140021
140447
140849
141252
141655
142072
142441
142859
143261
143696
144120
144512
144877
145311
145657
146006
146330
146686
147067
147391
147818
148246
148663
148939
149363
149701
150159
150550
151072
151524
152022
152394
152886
153294
153764
154150
154714
155213
155726
156115
156495
156932
157337
157946
158325
158693
159091
159537
159948
160391
160856
161249
161623
162072
162416
162783
163059
163453
163931
164405
164716
165202
165581
165924
166357
166800
167212
167542
167887
168222
168620
168866
169237
169579
169894
170282
170765
171182
171568
171924
172280
172654
172999
173332
173691
174030
174346
174721
175107
175441
175911
176343
176787
177167
177593
178064
178516
178951
179310
179719
180053
180483
180783
181257
181576
182008
182402
182786
183229
184108
184548
184924
185375
185739
186122
186801
187188
187689
188131
188551
188953
189391
189817
190165
190548
190940
191352
191757
192170
192624
193068
193547
193944
194352
194723
195080
195510
196259
196591
196950
197329
197730
198006
198447
198789
199295
199566
200037
200397
200897
201289
201868
202184
202645
202958
203415
203758
204206
204646
205013
205429
205726
206204
206599
207004
207364
207798
208179
208612
208940
209403
209751
210138
210609
211011
211176
211563
211972
212149
212317
212732
213084
213405
213818
214354
214890
215335
215742
216130
216480
216886
217118
217517
217839
218170
218477
218832
219161
219536
219874
220233
220658
221049
221451
221840
222211
222662
223034
223551
223984
224542
224941
225399
225799
226223
226637
227091
227543
227932
228356
228769
229118
229603
229958
230350
230773
231246
231697
232127
232587
233059
233524
233935
234402
234866
235302
236057
236699
237177
237563
237923
238285
238626
239013
239292
239607
239849
240187
240363
240702
240965
241259
241401
241583
242013
242448
242841
243314
243719
244065
244461
244921
245297
245722
246154
246632
247015
247448
247816
248381
248891
249342
249653
250097
250528
250860
251306
251769
252162
252548
252966
253403
253820
254244
254649
255064
255489
255894
256317
256712
257165
257541
257893
258353
258790
259237
259643
260103
260453
260853
261358
261769
262167
262554
262956
263310
263719
264015
264433
264878
265242
265686
266054
266412
266719
267056
267404
267627
268031
268489
268882
269239
269532
269983
270298
270642
271020
271321
271744
272050
272405
272809
273187
273615
274020
274595
275039
275478
275826
276252
276529
276951
277274
277655
277927
278358
278687
279021
279456
279737
280107
280478
280903
281241
281699
282022
282382
282678
283049
283367
283712
284098
284415
284920
285272
285609
285995
286370
286820
287188
287539
287939
288325
288669
289056
289409
289769
290116
290395
290826
291212
291541
291892
292283
292612
293028
293428
294081
294424
294853
295139
295481
295831
296265
296516
296925
297374
297762
298170
298537
298895
299147
299559
299842
300236
300522
300961
301351
301805
302248
302564
303022
303433
303823
304170
304585
304911
305364
305698
306193
306622
307041
307457
307836
308132
308594
309096
309581
309877
310285
310563
311015
311297
311725
312071
312414
312796
313171
313549
313943
314265
314586
315047
315477
315855
316283
316627
317012
317352
317700
318165
318543
318849
319151
319621
320002
320372
320646
321105
321542
322066
322311
322803
323144
323640
323952
324428
324753
325249
325535
325984
326187
326616
327062
327524
327921
328277
328633
328950
329226
329478
329776
330089
330459
330690
330917
331384
331811
332207
332560
332909
333264
333897
334189
334587
335002
335355
335728
336107
336538
336890
337219
337576
338027
338390
338792
339177
339580
339968
340370
340773
341104
341448
341822
342229
342633
343060
343446
343727
344090
344466
345016
345457
345846
346235
346581
346940
347309
347683
348059
348395
348682
349056
349397
349736
350074
350466
350837
351134
351528
351926
352316
352647
353039
353404
353749
354171
354535
354840
355209
355562
355916
356245
356618
357050
357502
357903
358312
358675
359111
359427
359862
360184
360573
360952
361309
361684
362053
362427
362797
363159
363552
363901
364235
364625
365074
365467
365913
366309
366727
367076
367433
367824
368231
368615
368968
369379
369720
370134
370677
371108
371471
371868
372218
372672
373075
373439
373821
374198
374594
374973
375289
375695
376109
376587
376936
377266
377618
377945
378390
378744
379113
379504
379850
380275
380665
381071
381485
381811
382233
382561
382926
383241
383606
383964
384424
384904
385383
385752
386214
386566
386948
387377
387679
388100
388490
388913
389305
389674
390164
390593
390994
391293
391622
392006
392331
392710
393016
393384
393737
394155
394726
395156
395577
396019
396519
396866
397251
397548
398047
398448
398815
399218
399568
400006
400374
400809
401304
401740
402183
402489
402855
403227
403718
404094
404457
404833
405258
405670
406049
406358
406783
407098
407584
408026
408441
408782
409189
409548
409923
410312
410679
411095
411397
411768
412119
412452
412768
413081
413486
413789
414135
414549
414892
415319
415686
416055
416425
416742
417182
417703
418159
418577
419023
419531
420030
420497
421035
421438
421897
422308
422658
423129
423484
423989
424364
424845
425339
425767
426178
426535
426957
427367
427812
428284
428700
429175
429526
429918
430380
430827
431182
431630
432081
432529
432913
433340
433782
434196
434801
435181
435634
436028
436365
436747
437145
437603
438059
438486
438992
439453
439872
440216
440528
440931
441327
441599
442011
442346
442670
443045
443333
443735
444130
444517
444952
445421
445918
446283
446720
447136
447573
447967
448411
448777
449232
449655
449980
450387
450685
451037
451468
452023
452499
452945
453435
453800
454208
454508
455007
455419
455720
456170
456492
456847
457275
457685
458084
458512
458849
459302
459723
460211
460676
461016
461439
461720
462137
462427
462820
463240
463595
463990
464330
464752
465186
465596
466020
466421
466844
467262
467674
468123
468466
468946
469375
469802
470209
470642
470953
471543
471944
472444
472837
473308
473705
474151
474584
475041
475512
475943
476404
476819
477216
477626
477994
478431
478858
479208
479573
479970
480421
480804
481263
481660
482080
482515
482903
483235
483713
483919
484383
484843
485265
485635
486041
486429
486986
487256
487526
487780
488026
488363
488797
489175
489635
490116
490520
490974
491406
491745
492119
492496
492889
493276
493708
494154
494533
494972
495422
496047
496476
496931
497298
497727
498144
498610
499014
499453
499892
500314
500820
501335
501812
502216
502670
503060
503442
503838
504267
504657
505099
505460
505892
506262
506710
506990
507447
507790
508225
508522
508946
509393
509770
510175
510570
510973
511295
511674
511983
512370
512664
513129
513447
513776
514153
514589
514876
515225
515568
516022
516430
516812
517229
517615
517912
518302
518662
519011
519325
519613
520085
520352
520799
521148
521623
521950
522416
522829
523273
523578
524041
524428
524846
525210
525646
526077
526475
526813
527198
527607
528006
528366
528687
529013
529304
529727
530258
530623
531162
531605
531995
532361
532888
533179
533606
533993
534350
534728
535093
535470
535836
536267
536647
537041
537443
537885
538169
538608
538910
539326
539564
539866
540238
540591
540933
541279
541599
541929
542228
542554
542974
543298
543678
544035
544374
544946
545252
545710
546026
546452
546769
547202
547614
547946
548379
548712
549126
549462
549878
550265
550598
550963
551259
551678
552030
552423
552875
553266
553693
554111
554428
554834
555174
555522
555887
556199
556533
556968
557331
557645
558034
558369
558794
559047
559391
559730
560124
560594
560941
561384
561696
562133
562482
562926
563262
563681
563987
564379
564685
565057
565383
565610
566031
566400
566795
567226
567555
568043
568500
568947
569380
569734
570225
570554
570985
571350
571851
572228
572725
573148
573559
573992
574411
574683
575176
575464
575898
576243
576624
577071
577427
577782
578149
578572
578972
579349
579750
580178
580497
580963
581349
581819
582231
582659
583258
583655
584061
584532
585019
585452
585856
586239
586613
586973
587317
587702
588067
588490
588817
589227
589596
590040
590501
590968
591294
591729
592159
592603
593003
593444
593878
594321
594680
595103
595636
596113
596530
597016
597451
597920
598408
598884
599323
599771
600216
600669
601084
601538
601953
602452
602919
603383
603847
604325
604797
605172
605605
606081
606498
606853
607308
607808
608266
608730
609213
609686
610143
610636
611121
611540
612030
612423
612868
613257
613681
614125
614578
614953
615385
615821
616313
616784
617283
617775
618274
618735
619165
619554
619945
620172
620458
620812
621171
621655
622013
622434
622803
623143
623503
623761
623990
624222
624651
624924
625271
625655
626007
626438
626819
627302
627608
628058
628370
628826
629204
629579
629927
630345
630787
631256
631680
632162
632725
633117
633496
633882
634294
634674
635073
635463
635921
636333
636749
637186
637572
637970
638380
638788
639223
639563
640040
640417
640817
641155
641585
641991
642328
642796
643162
643692
644082
644519
644872
645347
645684
646130
646514
646948
647311
647671
648047
648478
648873
649290
649593
650041
650344
650715
651129
651554
651929
652337
652742
653082
653524
653899
654291
654646
654982
655430
655812
656196
656506
656891
657263
657626
658124
658383
658780
659032
659430
659795
660105
660523
660834
661141
661484
661816
662173
662497
662867
663238
663589
663967
664267
664601
664911
665288
665669
666019
666386
666791
667081
667499
667783
668192
668518
668856
669212
669525
669980
670353
670638
671012
671421
671746
672041
672468
672820
673182
673502
673907
674250
674474
674914
675286
675766
676310
676706
676997
677394
677746
678106
678410
678711
679057
679507
679899
680258
680702
680960
681425
681762
682148
682570
682901
683331
683675
684095
684408
684856
685248
685680
686061
686463
686841
687208
687562
687927
688364
688692
689037
689325
689711
690095
690447
690863
691238
691660
692021
692509
692821
693296
693706
694162
694459
694843
695158
695658
695991
696393
696818
697101
697517
697849
698348
698768
699250
699640
700119
700489
700927
701347
701740
702165
702524
702919
703391
703751
704221
704673
705059
705403
705834
706243
706609
707000
707484
707934
708372
708832
709349
709776
710202
710662
711128
711543
712000
712441
712902
713331
713793
714206
714611
715015
715378
715837
716241
716796
717247
717760
718232
718677
719124
719613
719997
720412
720835
721161
721573
721973
722380
722881
723347
723806
724289
724686
725132
725541
725977
726409
726738
727192
727582
728008
728473
728868
729333
729830
730205
730629
731068
731559
732019
732397
732830
733245
733743
734185
